,RMS_1,RMS_2,RMS_3,RMS_4,RMS_5,RMS_6,RMS_7,RMS_8,RMS_9,RMS_10,RMS_11,RMS_12,RMS_13,RMS_14,RMS_15,RMS_16,RMS_17,RMS_18,RMS_19,RMS_20,RMS_21,RMS_22,RMS_23,RMS_24,MAV_1,MAV_2,MAV_3,MAV_4,MAV_5,MAV_6,MAV_7,MAV_8,MAV_9,MAV_10,MAV_11,MAV_12,MAV_13,MAV_14,MAV_15,MAV_16,MAV_17,MAV_18,MAV_19,MAV_20,MAV_21,MAV_22,MAV_23,MAV_24,WL_1,WL_2,WL_3,WL_4,WL_5,WL_6,WL_7,WL_8,WL_9,WL_10,WL_11,WL_12,WL_13,WL_14,WL_15,WL_16,WL_17,WL_18,WL_19,WL_20,WL_21,WL_22,WL_23,WL_24,ZC_1,ZC_2,ZC_3,ZC_4,ZC_5,ZC_6,ZC_7,ZC_8,ZC_9,ZC_10,ZC_11,ZC_12,ZC_13,ZC_14,ZC_15,ZC_16,ZC_17,ZC_18,ZC_19,ZC_20,ZC_21,ZC_22,ZC_23,ZC_24,SSC_1,SSC_2,SSC_3,SSC_4,SSC_5,SSC_6,SSC_7,SSC_8,SSC_9,SSC_10,SSC_11,SSC_12,SSC_13,SSC_14,SSC_15,SSC_16,SSC_17,SSC_18,SSC_19,SSC_20,SSC_21,SSC_22,SSC_23,SSC_24,IAV_1,IAV_2,IAV_3,IAV_4,IAV_5,IAV_6,IAV_7,IAV_8,IAV_9,IAV_10,IAV_11,IAV_12,IAV_13,IAV_14,IAV_15,IAV_16,IAV_17,IAV_18,IAV_19,IAV_20,IAV_21,IAV_22,IAV_23,IAV_24,VAR_1,VAR_2,VAR_3,VAR_4,VAR_5,VAR_6,VAR_7,VAR_8,VAR_9,VAR_10,VAR_11,VAR_12,VAR_13,VAR_14,VAR_15,VAR_16,VAR_17,VAR_18,VAR_19,VAR_20,VAR_21,VAR_22,VAR_23,VAR_24,WAMP_1,WAMP_2,WAMP_3,WAMP_4,WAMP_5,WAMP_6,WAMP_7,WAMP_8,WAMP_9,WAMP_10,WAMP_11,WAMP_12,WAMP_13,WAMP_14,WAMP_15,WAMP_16,WAMP_17,WAMP_18,WAMP_19,WAMP_20,WAMP_21,WAMP_22,WAMP_23,WAMP_24,TRAJ_1,type,subject,trajectory,date_time,TRAJ_GT_NO_FILTER,VIDEO_STAMP,TRAJ_GT
27.476239758410138,6.241085458511997,6.056756749674851,5.8547042915532765,6.162373849879691,6.564650388375126,8.384976568759482,10.887057821108172,6.654488706840297,5.302176936493412,5.840695690009499,5.531030337905212,5.526745004361428,6.586732319741022,9.109160394468365,11.485436415716737,7.380910668472546,4.204046378259087,4.193017364967703,4.146335913468631,4.368872701079005,4.907272048410953,8.401048922202294,8.78336069685915,6.330696823345324,4.641673718772942,4.487716655831262,4.351811867525775,4.574740106865898,4.915147054382819,6.39570662153709,8.232537603422422,5.050637112718885,3.9507994534590574,4.345447526035306,4.097776524118681,4.1157575207315436,4.985459966363001,7.016781423095663,8.780543359504593,5.579538843292617,3.2241045611820423,3.174276923860165,3.147823766108489,3.302473941055026,3.7128899484897584,6.244802587287418,6.749965185090434,4.982126807786592,-0.20724888946979725,-4.910415560588691,-6.5854330137391575,-6.728969598204544,-5.1200578530683245,-2.929852521508103,-8.455356225133457,-1.8400558688353144,-4.612572347267876,-8.331497792175586,-6.150866892537527,-6.290914232893015,-6.964314687286507,-8.277695898319198,-11.131132644476196,-4.58917797961428,-6.106982719724744,-7.145684850892159,-7.437658286949977,-8.626325588991854,-12.01122158614746,-22.01305501929027,-13.687970192314218,-6.538736871972598,0,0,0,0,0,0,4,0,0,0,0,0,0,0,6,0,0,0,0,0,0,0,0,0,0,0,0,0,0,0,0,0,0,0,0,0,0,0,0,0,0,0,0,0,0,0,0,0,11604.184296932355,11219.291639578156,10879.529668814437,11436.850267164744,12287.867635957049,15989.266553842725,20581.344008556054,12626.592781797212,9876.998633647643,10863.618815088264,10244.441310296705,10289.393801828859,12463.649915907501,17541.953557739158,21951.358398761484,13948.847108231543,8060.261402955106,7935.692309650412,7869.559415271222,8256.184852637565,9282.224871224396,15612.006468218544,16874.912962726085,12455.31701946648,38.94944494551319,36.6839553042118,34.27699203870703,37.974446797715466,43.094500477993684,70.30715229532633,118.51812989142826,44.2820750829827,28.112828732923145,34.113689935760775,30.591870211468567,30.544749622658507,43.38503484646329,82.97622429942153,131.91524038530198,54.47725496082868,17.67384807714864,17.581098906938816,17.191665844396653,19.08689239154675,24.08108901802802,70.57715839645175,77.1474081446554,40.07771361329839,1,0,0,0,1,0,4,0,0,0,0,0,0,0,0,0,0,0,0,0,0,0,0,0,0.0,emg_gestures,54.0,repeats_short,2018-05-11 14:05:34.118,0.0,26.514653677266004,0.0
27.720185432329842,6.518445669770122,6.395704973368379,6.243758024841962,6.491718315459156,7.001267705048709,9.006684670197242,11.360317568642063,7.1620385122642976,5.880233394375985,6.267823426657674,5.9733642967945295,5.932879674823696,6.974672796904629,9.329885126305234,11.261835488523422,7.855201873438876,4.6883566793152776,4.664774100107694,4.750580391428865,4.886035040302627,5.660492917415005,9.083091856138841,9.820629997085293,6.933750910488731,4.874244004007635,4.841642201760238,4.731563405377713,4.895970255877472,5.277232968230656,6.853916518489565,8.518344287876015,5.489167485836914,4.467991457220844,4.735210852100574,4.529915206483152,4.524422258108215,5.303209104876877,7.237433528293759,8.917832524351317,6.07970497013039,3.6829140304734826,3.63441528238546,3.705689060181177,3.8185161442208453,4.4429569858647024,6.988012070725221,7.895947982690632,5.605359524409483,-6.242158735247147,-6.320471795900598,-5.609330977006026,-5.330489937776979,-3.940150090117365,8.160915382181786,-3.572878629715796,-4.670701678442629,-7.283976833737747,-9.2050636421949,-5.5451398390709405,-6.541316907698806,-3.2830782018167377,-2.4706841471837127,-4.955968397429649,-9.899629071464538,-2.240753644463699,-2.9347468927488425,-3.013481153721437,-2.593116726926085,0.23236627078854788,4.034698867461348,2.779131651692211,-5.5081135434417225,0,0,0,0,0,0,4,0,0,0,0,0,0,0,2,0,0,0,0,0,0,0,1,0,0,0,0,0,0,0,0,0,0,0,0,0,0,0,0,0,0,0,0,0,0,0,0,0,12185.610010019087,12104.105504400595,11828.908513444283,12239.925639693682,13193.08242057664,17134.791296223913,21295.860719690038,13722.918714592284,11169.978643052109,11838.027130251434,11324.78801620788,11311.055645270539,13258.022762192191,18093.5838207344,22294.581310878293,15199.262425325975,9207.285076183707,9086.03820596365,9264.222650452943,9546.290360552113,11107.392464661756,17470.030176813052,19739.86995672658,14013.398811023708,42.48959694267587,40.90344648629387,38.982534717313804,42.13986394914852,49.015834640799525,81.11564438639519,129.05294014600446,51.29153251029866,34.576004975015216,39.28313312422004,35.678918337565754,35.19689666165113,48.643867510415994,87.04395708104032,126.82323244154406,61.693885325712614,21.976300544086822,21.756263207050985,22.56471849306952,23.86787963505893,32.035420712669215,82.48889645180265,96.42624539709887,48.06456857470989,0,0,0,0,0,0,5,0,0,0,0,0,0,0,0,0,0,0,0,0,0,0,0,0,0.0,emg_gestures,54.0,repeats_short,2018-05-11 14:05:34.118,0.0,26.75859935118571,0.0
27.964131106249546,6.127485352518333,6.036260856749203,5.8546690293682815,6.147306847703561,6.571778153764222,8.664508238787516,11.627708821343168,7.313222739477789,5.916087869471746,6.0845773137459815,5.6857287793904,5.630376335319191,7.130394543208912,10.104753390654519,12.442824917503062,8.823852469566852,4.922641302593258,4.738700773014054,4.874832248107959,5.04927482719379,6.222156723727007,9.830291385329142,10.979720740601463,8.203352007644604,4.612103169100888,4.583239874311362,4.435443027671981,4.629387422607276,4.876196909291087,6.660029873317992,8.818342372504741,5.590689005082744,4.471403357679299,4.5615413610347035,4.320821799789212,4.282641800353552,5.398016841103525,7.7241190903566155,10.015128010052877,6.824812727335901,3.8807170170930134,3.73454852791094,3.8605224221203156,3.996553677046543,4.907413767990531,7.51573711257977,8.602639594288586,6.410300043009055,5.277283221236553,5.841477520450477,4.709185339597584,4.421824342245797,4.401068900349909,1.5362817817816232,-0.8496473765046098,9.246338999786506,2.489941470039602,4.399414292071439,5.382430907363484,6.11704496303823,6.7882827786941755,4.7797214730523265,7.895638494656362,-5.9941259561787215,3.171819779850967,4.408255340126024,4.039237463559972,5.324497614123419,6.654759574660351,13.423981048594928,0.66355521951456,-2.729525380436325,0,0,0,0,0,0,4,0,0,0,0,0,0,0,3,0,0,0,0,0,0,0,3,0,0,0,0,0,0,0,0,0,0,0,0,0,0,0,0,0,0,0,0,0,0,0,0,0,11530.25792275222,11458.099685778405,11088.607569179952,11573.46855651819,12190.492273227717,16650.07468329498,22045.855931261853,13976.722512706861,11178.508394198247,11403.85340258676,10802.05449947303,10706.604500883881,13495.042102758813,19310.297725891538,25037.82002513219,17062.031818339754,9701.792542732534,9336.37131977735,9651.306055300789,9991.384192616357,12268.534419976328,18789.342781449424,21506.598985721466,16025.75010752264,37.5430961459037,36.43263886184314,34.27330922969533,37.78555291569296,43.18217572637325,75.06188212377548,135.17862511565878,53.47064204304982,34.997918253830264,37.02009787805936,32.323596328883454,31.69812147981536,50.839818186772476,102.10120862803437,154.8238895844433,77.8598579500855,24.2297402609945,22.452285148357234,23.7608181807064,25.493127576741124,38.71157026187538,96.62946115435022,120.55388312093872,67.29498296920892,0,0,0,0,0,0,4,0,0,0,0,0,0,0,4,0,0,0,0,0,0,0,0,0,0.0,emg_gestures,54.0,repeats_short,2018-05-11 14:05:34.118,0.0,27.002545025105412,0.0
28.20807678016925,5.987028354323135,5.792935923045561,5.565633908788266,5.888915259418985,6.219668234719917,7.944241772331368,11.425041316779756,7.089020832138269,5.471671212242581,5.780360297448419,5.320672496462117,5.2376241423066086,6.739355204727991,9.4789266173594,12.366945044109816,8.307346503304252,4.438437872266727,4.247575128758442,4.273039642197781,4.499156441015372,5.498143358989991,8.944720847256349,9.829424814261872,7.44200514535358,4.354105942695159,4.185123786738789,4.0291282797796795,4.237913357620297,4.458160109276214,6.143901444804227,8.74508850266235,5.300424545786252,3.948751241303806,4.1542366885977415,3.8346163287257093,3.7837744981751062,4.899726676703935,6.99753328561103,9.446576116015951,6.106426080564623,3.3478280347104583,3.214675988231962,3.237806831150862,3.4009565351494917,4.155168973268688,6.621505992247716,7.346880671669839,5.5630001539502825,5.813935338558362,6.171173193838902,6.318222182011061,6.658488062064871,7.0107189417036855,-1.1314759424740188,13.848248700316955,11.791852538714638,8.306154432469729,10.035461117075425,6.049953915000194,6.587270323862118,6.2842635640019635,3.9227870201856856,2.3795623069885217,8.258559137517638,4.473395343522583,4.371405937406574,4.059079773216886,4.39018299053358,3.1123932633488707,0.8688753001413243,-3.5544217476520927,6.005837747010915,0,0,0,0,0,0,2,0,0,0,0,0,0,0,7,0,0,0,0,0,0,1,2,0,0,0,0,0,0,0,0,0,0,0,0,0,0,0,0,0,0,0,0,0,0,0,0,0,10885.264856737896,10462.809466846971,10072.8206994492,10594.783394050743,11145.400273190535,15359.753612010567,21862.721256655874,13251.061364465631,9871.878103259514,10385.591721494355,9586.540821814273,9459.436245437766,12249.316691759837,17493.833214027574,23616.440290039878,15266.065201411559,8369.570086776146,8036.689970579906,8094.517077877154,8502.391337873729,10387.92243317172,16553.76498061929,18367.2016791746,13907.500384875706,35.843337405375244,33.55707374924749,30.97501309038098,34.677649936121455,38.68141792759791,63.101679124260635,130.52006178965556,50.24802111514612,29.938131448256854,33.41162046691081,28.308238259297468,27.430508659000683,45.41466800395995,89.84441216235419,152.92475254726781,68.99880739525358,19.69628586320689,18.038967354286257,18.256511593326024,20.238608451361138,30.226626878445398,80.00332631351452,96.60156306610696,55.374448682548326,2,2,0,2,2,0,2,0,0,0,0,0,0,0,4,0,0,0,0,0,0,0,0,0,1.0,emg_gestures,54.0,repeats_short,2018-05-11 14:05:34.118,0.0,27.246490699025117,0.0
28.452022454088954,6.906432502166466,6.291696247198971,5.970073509581548,6.232659342881198,6.613342176313772,7.76961846724417,11.694174762590194,8.361601029476592,5.925483162912187,6.1612182139003355,5.637959060570257,5.409099455803437,6.372773574540623,8.304913029129665,11.826334587260995,8.047161981267324,4.456829808300505,4.250309630098831,4.101458207405284,4.145526376462295,4.625371855858055,7.0758285856908,7.7456057758851,5.889393918263939,4.9996485415332,4.477229763839459,4.245273930355561,4.376525068047244,4.6589710280199865,5.98612541331961,9.051353615639874,6.034479932159833,4.158624111520217,4.297578342547431,3.96951664467578,3.8490939576907293,4.584023655842427,6.261821079301824,8.943715810270476,5.971567446986656,3.2845261090788407,3.136426735739993,3.037093973329243,3.1253845535623794,3.55729436657388,5.501853995796116,5.995827933628926,4.591613522370089,21.976465568318154,18.085090288044825,14.306182715795085,11.847204716050998,10.76159510121063,5.726802349681609,2.700047074424674,-0.5218712458302193,28.29838159478101,23.908239462195038,13.66748891811137,11.131948878188485,9.440765180143776,12.724238659485826,11.2796479399458,14.00906694721794,13.4470817115038,10.897039683288323,7.7776984944238166,6.956773687498644,10.092328750247749,13.80138524818631,22.243798782801576,20.044382481929645,0,0,0,0,0,0,4,0,0,0,0,0,0,0,8,0,0,0,0,0,0,0,0,0,0,0,0,0,0,0,0,0,0,0,0,0,0,0,0,0,0,0,0,0,0,0,0,0,12499.121353833001,11193.074409598647,10613.184825888902,10941.31267011811,11647.427570049966,14965.313533299024,22628.384039099685,15086.199830399582,10396.560278800542,10743.945856368577,9923.79161168945,9622.734894226824,11460.059139606066,15654.55269825456,22359.289525676188,14928.91861746664,8211.315272697102,7841.066839349983,7592.734933323108,7813.461383905948,8893.2359164347,13754.63498949029,14989.569834072316,11479.033805925223,47.69622328499807,39.58542269946812,35.64137883078766,38.84453970918167,43.7358156634149,60.36597214314644,136.74587090879837,69.879542576402,35.1113234515621,37.96014802505143,31.78647490701963,29.258342135731898,40.612082693471955,68.97132069661825,139.8565674000058,64.75390235850772,19.86021494860442,18.062335186600425,16.821170235430134,17.18473287425714,21.392948508940105,50.067147730854316,59.991609248486256,34.682945699456624,2,2,0,2,2,0,2,0,0,0,0,0,0,0,0,0,0,0,0,0,0,0,0,0,1.0,emg_gestures,54.0,repeats_short,2018-05-11 14:05:34.118,0.0,27.49043637294482,0.0
31.867261888964812,7.4917597388783275,7.063202623341647,6.8558562953942985,7.289528397099685,7.897824951614097,10.30437854904664,15.341972433811971,9.226190146271803,6.861893060275793,7.029665300655297,6.571547130297818,6.663710496333473,8.786244971057988,13.500353828506721,18.477823577952808,11.237390109455486,5.677251563805713,5.51030545725657,5.499480112648341,5.94790039657303,7.5168984433419945,12.720320134669524,11.848966755737237,9.366691013663452,5.516814834040085,5.21060740076914,5.129752083290109,5.398582505590635,5.819122306843176,8.046814394063386,11.925913750231258,7.097867500336643,5.142699629871796,5.193784363283638,4.904915634938087,4.989548312304782,6.801435597081078,10.192082986965898,13.793567850717631,8.602220240029233,4.494338914666963,4.340929877898923,4.311453285688265,4.713428019525954,5.986832424199028,9.92061175288196,9.49433843768785,7.4252681066005275,-11.729746211555748,-3.870472653867874,-6.921849133680141,-4.589215308514762,-1.4442368357708801,2.1665943199472775,-21.992379038335116,-28.577523379652686,-14.186756216281587,-6.669954943097154,-6.98153752301406,-8.050412184568335,-7.093919039831135,-4.726841701395415,-15.167101994890535,-14.820542938799587,-8.070613193068397,-9.681215000170557,-11.253533348665172,-10.948979663228272,-12.051461881132937,-11.113306415411458,-12.981575920555283,-18.071798379312057,0,0,0,0,0,0,15,0,0,0,0,0,0,7,14,2,0,0,0,0,0,3,4,0,0,0,0,0,0,0,0,0,0,0,0,0,0,0,0,0,0,0,0,0,0,0,0,0,13792.037085100212,13026.51850192285,12824.380208225273,13496.456263976588,14547.80576710794,20117.035985158465,29814.784375578143,17744.668750841607,12856.74907467949,12984.460908209094,12262.289087345218,12473.870780761956,17003.588992702695,25480.207467414748,34483.91962679408,21505.550600073082,11235.847286667406,10852.324694747309,10778.633214220663,11783.570048814883,14967.081060497569,24801.529382204903,23735.84609421962,18563.170266501318,56.12501271504595,49.88881971891954,47.00263979193835,53.13661682159011,62.37348274311416,106.175292097454,235.37309084390853,85.12034583685978,47.08375904427333,49.41547803242246,43.18474440094403,44.40448413077629,77.19454352525838,182.2574596783184,341.42953347271884,126.26785605280413,32.231173662015685,30.363448742084834,30.24397804662328,35.377442367346816,56.50343284166507,161.80651465402866,140.3963553001274,87.73472064843877,0,0,0,0,0,0,6,0,0,0,0,0,0,0,6,0,0,0,0,0,0,0,0,0,0.0,emg_gestures,54.0,repeats_short,2018-05-11 14:05:34.118,3.0,30.90567580782068,0.0
32.111207562884516,6.523285978263869,6.191427638972121,6.018251010750279,6.218464524382084,6.690407425265336,9.271264848706995,13.563123074074946,7.8202278529461005,6.292202210676773,6.1632106378450455,5.664761399113353,5.645561080928634,7.503306323457687,11.512200841777728,14.99998861940145,9.015635652260398,5.105470457627845,4.851905390634935,4.772944151744539,5.2005964176096775,6.3489453465629655,10.653493174688347,10.815822022994714,8.213866451268085,4.913570014422498,4.701988342779155,4.565170001956365,4.69182678002551,4.994849849713019,7.128123143269238,10.648480817432484,6.089343241025369,4.832380148996992,4.640778134523447,4.273703313006231,4.278038832290246,5.777689543236946,8.883891848862413,11.610692077363472,7.07816418655264,4.004420980281385,3.789518038100539,3.6963790729838526,4.087717156350118,5.030265038270213,8.222513577147406,8.504706740117749,6.381655109981621,0.33368964249283906,-1.2988168080981293,0.19020987910088305,1.6981158032022226,3.4245873110778895,0.9207938335320804,28.528818964526597,7.781078815131701,-1.0259888494846052,-3.4772374071494747,1.90421117337377,1.0828699854376507,2.394509232846052,6.522975910167444,-17.97402366112069,0.7184159835256967,2.361203624686731,-0.10950468898072518,3.78692702660518,5.991719049333632,9.546866031119915,15.16166734973203,14.098727775971629,5.789176881160003,0,0,0,0,0,0,8,0,0,0,0,0,0,3,11,0,0,0,0,0,0,2,2,0,0,0,0,0,0,0,0,0,0,0,0,0,0,0,0,0,0,0,0,0,0,0,0,0,12283.925036056244,11754.970856947888,11412.925004890913,11729.566950063774,12487.12462428255,17820.307858173095,26621.20204358121,15223.358102563423,12080.95037249248,11601.945336308618,10684.258282515577,10695.097080725614,14444.223858092364,22209.729622156032,29026.73019340868,17695.4104663816,10011.05245070346,9473.795095251347,9240.947682459631,10219.292890875295,12575.662595675532,20556.28394286852,21261.76685029437,15954.137774954053,42.54991949388567,38.3298908551921,36.215463755428324,38.66699884099836,44.76047190939819,85.94316859686757,183.9583065093596,61.150522144912635,39.587881297161985,37.98260383674473,32.08591986206344,31.869750883181883,56.295215804426405,132.52948166070766,224.99901979473316,81.27951135445757,26.059423664550202,23.537047048484563,22.777139803651338,27.041731355836003,40.305273717992215,113.49440165361194,116.97385273866544,67.45389528514696,0,0,0,0,0,0,3,0,0,0,0,0,0,0,2,0,0,0,0,0,0,0,0,0,0.0,emg_gestures,54.0,repeats_short,2018-05-11 14:05:34.118,0.0,31.149621481740382,0.0
32.35515323680422,6.085826495883194,5.971931306088543,5.641734665638134,5.808621237401608,6.221797123688431,8.04774763608851,11.782932507544041,7.184065389681406,5.930770075260897,5.821885537223495,5.242711169004203,5.1983442866399034,6.916216171695368,10.79344814481906,13.246768896652851,8.17124959989356,4.828538569772356,4.307347375249853,4.177817190448769,4.469864284117228,5.405899577951336,9.699671506695488,10.325323862674532,7.15596612221914,4.537505215748219,4.501160246551834,4.201886658000544,4.291291385728027,4.551512749644357,6.093684355019419,9.105182118524594,5.5707622391650595,4.456322140473927,4.331885436157648,3.8705256495548195,3.8518230356147694,5.043320071892576,7.964736064783865,9.974775586254285,6.321286984068913,3.736890564953565,3.2953265053728957,3.16898827940283,3.432980923620145,4.164901170699463,7.403827138245526,8.000366185738075,5.440655756746904,-5.425530564217349,-7.065545996220383,-7.657105659284904,-8.259334063449563,-11.0322186763659,-6.107477974584534,-12.479293099866005,-7.751164162680785,-0.9513297967452967,-7.313191225052728,-7.41460327739731,-5.97067738255247,-9.039635072865618,-17.619322092381374,-8.202008413002625,-2.956093626237431,-8.78284451849484,-7.077553807853962,-3.104001017564362,-4.829786943322796,-5.284502042152659,-7.498900558760861,2.7130534440346707,2.694511617689032,0,0,0,0,0,0,2,0,0,0,0,0,0,4,12,0,0,0,0,0,0,1,2,0,0,0,0,0,0,0,0,0,0,0,0,0,0,0,0,0,0,0,0,0,0,0,0,0,11343.763039370548,11252.900616379584,10504.71664500136,10728.228464320067,11378.781874110893,15234.210887548546,22762.955296311484,13926.905597912648,11140.805351184817,10829.713590394122,9676.314123887048,9629.557589036924,12608.30017973144,19911.840161959663,24936.938965635713,15803.217460172284,9342.226412383912,8238.31626343224,7922.470698507074,8582.452309050363,10412.252926748657,18509.567845613816,20000.915464345188,13601.63939186726,37.037197124620384,35.663061149726566,31.828217538906063,33.73942618191568,38.70866190542748,64.76277108723383,138.83746644170293,51.61075984513017,35.17211467782738,33.89358687916666,27.485000787021004,27.021748967951652,47.8331577622566,116.4961829724025,175.4760440213366,66.76890210313499,23.31476036463069,18.55296109792417,17.453557002668227,19.979473972709144,29.223729711846577,94.08164320749864,106.61212886885959,51.20776560970771,0,0,0,0,0,0,0,0,0,0,0,0,0,0,1,0,0,0,0,0,0,0,0,0,0.0,emg_gestures,54.0,repeats_short,2018-05-11 14:05:34.118,0.0,31.393567155660087,0.0
32.599098910723924,6.192712427666049,6.172179885681947,5.8773747594277905,6.079008686852514,6.36833012602545,7.3141034013883095,10.935735677580787,6.894400363285317,5.6679768423687795,5.975554556484615,5.378961577442062,5.3065999004153825,6.396777154353089,9.29943322776021,11.071666361655389,7.451198773629644,4.2115991942290005,3.9846657845300792,3.9471826764178233,4.169297549572347,5.092116926845309,9.016616908580232,8.539295204749525,6.096390533867972,4.571403033003703,4.565730334424468,4.355262570747509,4.455580431101485,4.7090328909392305,5.674136918235902,8.472153981515262,5.3937207665900795,4.270555603200181,4.481849988049864,3.982610661790159,3.9664238865032226,4.774049431469514,7.0541183673529595,8.47223912150941,5.899015073099571,3.331563869129286,3.1280012869470144,3.096007867447925,3.277351725376115,3.976348357142168,6.786652093772131,6.700121827835457,4.861969300879989,1.293023177432695,1.2804824926368474,1.0202603145569622,0.3448625650628845,1.4806376314876526,-4.597396403501761,16.093544258657285,4.53712641814796,-3.933038698569259,0.7261453171749368,0.6532167072996797,0.41202475987296605,-4.162038462073689,-6.489006400853251,-8.315772768538768,-11.64627236407808,-1.2057329786860955,2.5793727816930634,-1.030615145638949,-0.7651182744036644,-4.98659979814577,-14.965610693166697,-13.211228405470187,-4.304306324178082,0,0,0,0,0,0,1,0,0,0,0,0,0,0,4,0,0,0,0,0,0,1,0,0,0,0,0,0,0,0,0,0,0,0,0,0,0,0,0,0,0,0,0,0,0,0,0,0,11428.507582509257,11414.325836061169,10888.156426868773,11138.95107775371,11772.582227348077,14185.342295589755,21180.384953788158,13484.301916475199,10676.389008000453,11204.62497012466,9956.526654475398,9916.059716258056,11935.123578673785,17635.2959183824,21180.597803773526,14747.537682748927,8328.909672823214,7820.003217367536,7740.019668619813,8193.379313440288,9940.87089285542,16966.630234430326,16750.304569588643,12154.923252199971,38.347687153116155,38.09547557592699,34.54330998973338,36.95390092268502,40.55512528765044,53.49120045674725,119.58947109765103,47.530711019462466,32.1259603432483,35.70714149566527,28.932673890480025,28.15970067838032,40.917345805968374,86.47894745598288,122.55979701830286,55.51691610319531,17.73548578323553,15.876170377931144,15.578291870291627,17.38107440844645,25.926634152991802,81.29066025230165,72.90926397433104,37.15747461656431,2,1,0,1,1,0,2,0,1,0,0,0,0,0,0,0,0,0,0,0,0,0,0,0,0.0,emg_gestures,54.0,repeats_short,2018-05-11 14:05:34.118,0.0,31.63751282957979,0.0
32.84304458464363,6.164064197681337,6.046987630306741,5.8240333840600185,6.093499668169866,6.413819922201326,8.271533489355853,12.435034683751738,7.511052421394561,5.4915324822787595,5.845521367733387,5.367986835671435,5.3504139567554425,6.4527932768592375,9.140239166750495,10.90306435951625,7.730722112317155,3.9610029508256224,3.8810921020434184,3.950872847625509,4.16391256372087,5.173600122818628,8.832906426689066,7.7911211466443255,6.207651081988175,4.503835695707923,4.432710069906978,4.30665706235599,4.449746404679703,4.719190178359608,6.584417782897112,9.723479990839234,5.860861610711538,4.149012009333946,4.351867643101558,3.97098134255326,4.001516120025077,4.9580403910377635,7.217100191642845,8.36580766213327,6.124940490118973,3.0604722508606512,3.0269379502934957,3.079774968040389,3.234275154989029,4.056875660673103,6.655454096698262,6.082033692607004,4.755354198272697,4.616471397511339,3.999107334883041,4.599809305335864,2.510829077011233,3.6473381402349334,-5.170067801858604,-5.9812313007764395,3.1729042687402282,6.253831965693779,4.122802029256308,3.2016051890303245,3.258245194355057,-2.1663557612840316,-6.4506269599946595,-6.281285908671615,2.773044547110251,4.808518279745735,3.7501247634984867,2.371341450295641,2.48563129060562,1.0339288845566577,0.9267600887433991,6.709400053053274,8.939887283661246,0,0,0,0,0,0,4,0,0,0,0,0,0,0,1,0,0,0,0,0,0,1,0,0,0,0,0,0,0,0,0,0,0,0,0,0,0,0,0,0,0,0,0,0,0,0,0,0,11259.589239269808,11081.775174767445,10766.642655889975,11124.366011699258,11797.975445899021,16461.04445724278,24308.699977098084,14652.154026778846,10372.530023334864,10879.669107753896,9927.45335638315,10003.790300062692,12395.10097759441,18042.75047910711,20914.519155333175,15312.351225297432,7651.180627151628,7567.344875733739,7699.437420100973,8085.687887472573,10142.189151682756,16638.635241745655,15205.08423151751,11888.385495681741,37.99412875364823,36.559484305375705,33.91346956323518,37.12681370436037,41.13496591415969,68.41756247192902,154.6167261212403,56.41523545817919,30.151757538307493,34.164253722119376,28.8100794938174,28.621498772436496,41.63701578811844,83.54297048294592,118.87634775442118,59.76361067959141,15.688716532915468,15.05986803992282,15.606025527510408,17.33458795493028,26.76255590395148,78.0147757020302,60.692011033779686,38.533206703654784,2,1,0,1,1,0,2,0,1,0,0,0,0,0,0,0,0,0,0,0,0,0,0,0,0.0,emg_gestures,54.0,repeats_short,2018-05-11 14:05:34.118,0.0,31.881458503499495,0.0
33.08699025856333,5.2491685709900695,5.062708242602012,4.8494557974771455,5.079274906001462,5.43807176021128,7.80880589442772,11.976742440353824,6.968122201909251,4.678396239911187,5.022947135587748,4.526795577314058,4.517019103992447,5.624886241238598,8.445688045362802,10.084182523792595,6.935144831215355,3.3007537316127844,3.271931919693235,3.333593838880601,3.46313354709238,4.366305591341916,7.677767869019816,7.484275575059946,5.972033298057737,3.924479092112199,3.8257233849523065,3.6577707389246585,3.7799185197349345,4.04077128520456,6.185385931051323,9.289509442868596,5.421129007399216,3.499070704251823,3.8013089950497014,3.403152082465221,3.4074361559439015,4.332687954149577,6.6694250837177,7.829513561721917,5.409469005473346,2.5291502320132966,2.5466006085387365,2.6084001581431635,2.7018087073439268,3.4653847716103576,5.967734932797095,5.785110786265429,4.428196306313839,-3.7919488056915087,-5.151713664622631,-4.608721238226515,-3.35626880632656,-3.8302074673514417,12.273009781415015,-12.4993282332845,-3.184630449884004,0.08691082489139168,-0.21332100327325954,-4.039272290112898,-4.1344673649615356,2.285570330402763,0.9723639320515023,-1.3168535760158129,-4.16376622918892,-2.4930146956409103,-2.222722290791488,-0.32809130907095163,-0.6857732653611588,1.8786729389884904,4.781469193968697,4.592662700495678,2.9155605068893355,0,0,0,0,0,0,6,0,0,0,0,0,0,0,3,0,0,0,0,0,0,0,0,0,0,0,0,0,0,0,0,0,0,0,0,0,0,0,0,0,0,0,0,0,0,0,0,0,9811.197730280497,9564.308462380766,9144.426847311646,9449.796299337337,10101.928213011399,15463.464827628308,23223.77360717149,13552.82251849804,8747.676760629558,9503.272487624254,8507.880206163052,8518.590389859753,10831.719885373943,16673.56270929425,19573.783904304793,13523.672513683365,6322.875580033241,6366.501521346841,6521.000395357909,6754.521768359817,8663.461929025894,14919.337331992736,14462.776965663574,11070.490765784598,27.553746228942135,25.630104938641196,23.516190544504454,25.79868545301251,29.571674377542966,60.9614883095412,143.4254085470817,48.55187025178904,21.884228355228924,25.225925003840022,20.490666254585232,20.402096793447864,31.635494309915472,71.31630231761075,101.67677665920027,48.083286741221194,10.894014935634749,10.704926605164411,11.112585898788206,11.992931473702017,19.064121483485216,58.94754977793139,56.01337445463343,35.66359496695819,0,0,0,0,0,0,0,0,0,0,0,0,0,0,0,0,0,0,0,0,0,0,0,0,0.0,emg_gestures,54.0,repeats_short,2018-05-11 14:05:34.118,0.0,32.1254041774192,0.0
33.33093593248304,5.183797053380987,5.004321526803946,4.810193149818304,4.987780241913736,5.226693177560366,6.275999967977387,10.479252425118073,6.255321683767539,4.566980311762137,5.01258472896127,4.499707116404579,4.485333006520239,5.459661610072041,8.177458458218254,9.957114435983543,6.510317056510807,3.177108576523662,3.2983167638736006,3.3953549778925796,3.5514718659132107,4.541650037756354,8.05674418325256,7.671462452174724,5.758133843305207,3.835247681537218,3.7197938614259956,3.5789284990585717,3.710906605095957,3.8997782760276323,4.9660862198621745,8.057324776571924,4.829028229903517,3.4138653076574026,3.762462797700468,3.3555345753327157,3.364943219046035,4.163857538946306,6.333663498587244,7.6731065020656475,5.038270846910107,2.4932429861387377,2.574569705957134,2.6580266344098913,2.794204863121138,3.5901340914972373,6.149406340879227,5.875303539590371,4.4489931468945105,-6.668089465553274,-7.348275791954353,-6.2990434001871884,-5.839256205713098,-8.614045464130877,-5.570840801665185,5.227884253686435,-3.5200500349026047,-7.2750142077853575,-8.569757419031877,-6.016571609781204,-6.93561398656957,-7.510754493238016,-2.9029165114458966,-8.298522564909222,-10.987845050824774,-5.543734133568049,-3.676598502915962,-3.635023515736004,-3.2663521219629263,-0.5181852217309921,-1.3739545693696442,-10.231081934753913,-9.105499831467611,0,0,0,0,0,0,4,0,0,0,0,0,0,0,2,0,0,0,0,0,0,0,0,0,0,0,0,0,0,0,0,0,0,0,0,0,0,0,0,0,0,0,0,0,0,0,0,0,9588.119203843045,9299.484653564989,8947.321247646429,9277.266512739892,9749.44569006908,12415.215549655437,20143.311941429813,12072.570574758793,8534.663269143506,9406.15699425117,8388.83643833179,8412.358047615087,10409.643847365765,15834.15874646811,19182.76625516412,12595.677117275269,6233.107465346844,6436.424264892835,6645.066586024728,6985.512157802845,8975.335228743093,15373.515852198067,14688.25884897593,11122.482867236276,26.871651145591457,25.043052352216826,23.13771914004291,24.877691001423123,27.316604769263417,39.37426018700435,109.80969642668971,39.127339978354044,20.85629009577919,25.125046043273912,20.247011030811258,20.11766539039398,29.807571907623554,66.8678881044607,99.14243938638147,42.38356962446878,10.091432452510583,10.877458709262084,11.526630281022683,12.611482919318334,20.624123449476354,64.9051768646264,58.84190778762678,33.147909462262874,0,0,0,0,0,0,0,0,0,0,0,0,0,0,0,0,0,0,0,0,0,0,0,0,0.0,emg_gestures,54.0,repeats_short,2018-05-11 14:05:34.118,0.0,32.3693498513389,0.0
33.57488160640274,5.516086158333922,5.400324497203763,5.274183567076249,5.495567593543957,5.760980028501696,6.505277185585458,11.03925816943819,6.460743553602039,5.007748113058227,5.30436826830111,4.9687848227021565,4.932411981510319,6.081162955656883,9.062170240889358,11.504094218174004,7.194888685144559,3.897253332039821,3.9479967444605792,4.038368469610171,4.290019634881862,5.265464496825707,9.14002625265684,8.894244864313617,6.543698229988532,4.0518670374563515,3.978383574092205,3.911412538811787,4.072748881066951,4.268347473364817,5.066294718697962,8.48453064989929,4.915206712494481,3.748879782010708,3.9830461905815393,3.6948237646857,3.727438497458883,4.671549497823183,6.912664644829392,8.943887264222704,5.545928447266611,3.0795539049717715,3.0987427403499104,3.1663138523117933,3.3528674292973,4.128587951725975,6.9046556825050285,6.89667078019072,5.1168054681317106,0.5776179360263924,1.1639149471434722,0.21032226172675994,0.12599292748858026,-1.1397184354252037,-5.807034522608074,-3.865790987064849,-4.220810079071917,0.6494683687178542,-1.7041879528943653,-0.35092837034038205,0.3236281720435543,-0.9880942899812837,0.7949410778639976,5.3385905935618325,3.896695859452943,0.11145526116516002,-1.308553955707505,-1.7881409333572913,-2.606394043325837,-3.2790269926356728,-4.323684492060032,-1.194435759973734,-0.07835363378200988,0,0,0,0,0,0,3,0,0,0,0,0,0,2,7,0,0,0,0,0,0,0,0,0,0,0,0,0,0,0,0,0,0,0,0,0,0,0,0,0,0,0,0,0,0,0,0,0,10129.66759364088,9945.958935230512,9778.531347029468,10181.872202667377,10670.868683412042,12665.736796744904,21211.326624748224,12288.016781236201,9372.19945502677,9957.615476453848,9237.05941171425,9318.596243647207,11678.873744557957,17281.66161207348,22359.71816055676,13864.821118166528,7698.8847624294285,7746.856850874776,7915.784630779483,8382.16857324325,10321.469879314936,17261.63920626257,17241.6769504768,12792.013670329276,30.426917750738923,29.163300673034193,27.816891336753255,30.200852106262417,33.18875312031745,42.31653352948766,121.8621356656631,41.740778787716906,25.077002504740086,28.136276590813825,24.688744511374576,24.328574738961155,36.980441876382436,82.12219271812226,132.34240515056555,51.76624343411611,15.18844136532348,15.58624274092869,16.30798334349891,18.403803409141144,27.72464756857431,83.53938395546587,79.10555277438542,42.81847822849833,0,0,0,0,0,0,0,0,0,0,0,0,0,0,0,0,0,0,0,0,0,0,0,0,0.0,emg_gestures,54.0,repeats_short,2018-05-11 14:05:34.118,0.0,32.61329552525861,0.0
33.818827280322445,5.894627563569942,5.76104535141118,5.5865292294579945,5.801575547133232,6.1442167079240795,7.429759628066978,11.131113528189536,6.818474833310828,5.360369418627788,5.516188370762201,5.284859293900223,5.230400230017737,6.284417966646734,9.199020121662796,11.449704994685769,7.744546809571052,4.3295099596584,4.29474393042066,4.314336402293627,4.634905160851028,5.481923491315262,9.348514997528847,9.147810164264792,6.82159820135613,4.460617711410399,4.356129715884292,4.246917030126387,4.3829398627285645,4.646210772207798,5.827721753080111,8.651296553108914,5.262822385065291,4.053295831766824,4.195113121309828,4.007397325242583,4.005643788335497,4.858164781761094,7.048741495088263,8.854412278700378,6.013097152088808,3.4210144334898374,3.4048761086179584,3.4130956256283507,3.6563711634521887,4.325945949133103,7.106812736848972,7.198354584310543,5.348476103334175,-3.0456103650584074,-1.9026775079595044,0.1143755729273499,-0.8169635932782588,0.2267695080830947,-3.55632598396401,-11.26696611809095,-5.223919986916736,-2.5961860817561906,-1.8755589366030136,0.34883028359693524,-0.924525025288295,1.7258654630549009,2.109621533697677,4.785886769860099,-2.5480501677104694,0.8014609368278793,-1.118860346557553,-0.9113114685147503,-1.0876562101102936,-2.137989969271166,-1.4884933051563456,4.5190319061982045,3.1474997932899518,0,0,0,0,0,0,3,0,0,0,0,0,0,3,7,0,0,0,0,0,0,0,0,0,0,0,0,0,0,0,0,0,0,0,0,0,0,0,0,0,0,0,0,0,0,0,0,0,11151.544278525998,10890.32428971073,10617.292575315969,10957.34965682141,11615.526930519496,14569.304382700277,21628.241382772285,13157.055962663228,10133.239579417059,10487.78280327457,10018.493313106457,10014.109470838743,12145.411954402734,17621.85373772066,22136.030696750946,15032.74288022202,8552.536083724593,8512.190271544896,8532.739064070876,9140.927908630472,10814.864872832757,17767.03184212243,17995.886460776357,13371.190258335437,34.7420277249206,33.18478146260923,31.202965869749004,33.65166077747581,37.74196298313783,55.19223690968616,123.9013101117427,46.490876302748944,28.73132383016316,30.42309137098322,27.924023383688088,27.350462635992677,39.49045204613679,84.62192150802001,131.0957350986038,59.97565873104513,18.738622375268676,18.43748020958383,18.60456243038121,21.473733901792833,30.040338308834546,87.37769374616926,83.66160513245077,46.52353047720766,0,0,0,0,0,0,0,0,0,0,0,0,0,0,0,0,0,0,0,0,0,0,0,0,0.0,emg_gestures,54.0,repeats_short,2018-05-11 14:05:34.118,0.0,32.85724119917831,0.0
34.06277295424215,5.743851949212921,5.529048539020077,5.3048787150059855,5.51705612484576,5.8830966961529345,7.293742643661361,11.06322483376744,6.414705733146179,5.133321277761539,5.251140423007641,5.027645304176027,5.005018247155992,5.823450222432438,8.335105257941638,10.745694041234987,7.636091961034148,4.003465496329381,3.940789548378081,4.033695365897063,4.157741699122392,4.891450946513506,8.368405697174513,8.5199774288405,6.4437695229479415,4.324614969302522,4.098326669662537,3.9525227691096596,4.091317378673825,4.330130102808694,5.6678530663765185,8.558626676511842,4.963239992092957,3.8327282852296345,3.889359346479401,3.7332544904488403,3.7466732724642156,4.460692719597243,6.521192090169117,8.30896277165058,5.96695580629191,3.051702392610882,3.041603424257597,3.1092089678372083,3.2735313688826975,3.9034698411462583,6.49863203798025,6.706763800780029,5.059839322867559,5.990713081946522,7.829857627996514,7.775727387584401,7.8655824591940355,9.617438860133033,8.27513684715761,2.855871355065288,3.311920529591176,4.724859284796459,8.125156656558815,7.556489455270749,7.251787522606231,6.336979912122065,9.361082576217042,15.43177924770113,7.870523500807785,4.990026715821703,5.320748413971552,5.698740235756167,6.113139912839353,5.069805332520632,5.943363116131524,5.7728437735831175,2.394969449180441,0,0,0,0,0,0,4,0,0,0,0,0,0,1,3,0,0,0,0,0,0,0,0,0,0,0,0,0,0,0,0,0,0,0,0,0,0,0,0,0,0,0,0,0,0,0,0,0,10811.537423256306,10245.816674156344,9881.306922774149,10228.293446684562,10825.325257021734,14169.632665941295,21396.566691279604,12408.099980232393,9581.820713074087,9723.398366198502,9333.1362261221,9366.683181160539,11151.731798993107,16302.980225422793,20772.406929126446,14917.389515729776,7629.255981527205,7604.0085606439925,7773.0224195930205,8183.828422206743,9758.674602865645,16246.580094950625,16766.909501950075,12649.598307168897,32.98684144485531,30.566604701873537,28.138240030938917,30.434577659921878,34.60827976836915,53.19770665353525,122.39236024137986,41.14657429764221,26.346351478621205,27.57053456713896,25.274291350921498,25.04735506206118,33.90863098720877,69.46356943039272,115.45816703982348,58.30624012968769,16.024971406893847,15.526331945654768,16.26768619776546,17.284020326974556,23.92264064580697,70.02414951444688,72.58229200178442,41.51485844494953,0,0,0,0,0,0,2,0,0,0,0,0,0,0,1,0,0,0,0,0,0,0,0,0,1.0,emg_gestures,54.0,repeats_short,2018-05-11 14:05:34.118,0.0,33.101186873098015,0.0
34.30671862816185,7.257450022025365,6.318487778025876,5.788424503819021,5.820484420874985,6.02695320826702,7.115385780822946,11.650826741577426,6.832588701070251,6.256624810290036,6.099559911919565,5.507075399807352,5.31840228017062,5.848553287438066,8.028332542624913,10.925546012829992,7.210409339261193,5.18205381657789,4.726894676255316,4.531363763111149,4.506169501259738,5.223130618808582,8.131228704600415,7.977573968144507,6.618983451316011,5.096992806717736,4.504636602303599,4.2174511689595136,4.255089873526217,4.382350471733343,5.469799071074662,8.942671737179642,5.140539542350449,4.293926784757657,4.342517011234488,4.004194263995496,3.9148098133104225,4.376867461931065,6.3200168338004925,8.630693358118382,5.601736851472239,3.609728393978542,3.420362955733831,3.389734275555599,3.44506495787274,4.111937512779821,6.394181451355291,6.260463557564473,5.003638661035686,6.9604048617971666,7.064045936877653,6.020554780690327,7.682637673215977,9.962318161082058,9.70936347575683,8.723381909958636,9.855472430609467,9.282889063060555,9.806877476114138,7.393612187145032,9.121167101606526,12.01561527484333,13.932142636922954,16.0618998922423,17.602642359836025,6.4270763358204785,5.371310929649578,2.2709776789154885,4.2172963147871965,1.7075505056776121,-4.626478286672134,5.200944982142383,10.296912597800599,0,0,0,0,0,0,4,0,0,0,0,0,0,0,1,0,0,0,0,0,0,0,0,0,0,0,0,0,0,0,0,0,0,0,0,0,0,0,0,0,0,0,0,0,0,0,0,0,12742.48201679434,11261.591505758995,10543.627922398784,10637.72468381554,10955.876179333358,13674.497677686655,22356.679342949108,12851.348855876124,10734.816961894143,10856.29252808622,10010.485659988739,9787.024533276057,10942.168654827663,15800.04208450123,21576.733395295956,14004.342128680597,9024.320984946355,8550.907389334578,8474.335688888998,8612.66239468185,10279.843781949552,15985.453628388226,15651.158893911183,12509.096652589216,52.67053845158755,39.92261022448299,33.50462719958178,33.8772105153832,36.32344875769103,50.62371721469322,135.72764630581463,46.67768570553085,39.14534682025102,37.20435116651764,30.327608036965433,28.285015998103766,34.20408343559012,64.45359732778013,119.36674278285983,51.98909104445806,26.85363157793949,22.343430668614932,20.533256564032868,20.305556149656447,27.281076592312218,66.11576768051346,63.641330726986446,43.809432654583745,0,0,0,0,0,0,2,0,0,0,0,0,0,0,1,0,0,0,0,0,0,0,0,0,1.0,emg_gestures,54.0,repeats_short,2018-05-11 14:05:34.118,0.0,33.34513254701772,0.0
34.55066430208156,22.47381680801389,17.866519028403424,15.299952699915437,14.658083347150807,14.748169303121028,19.98770288376099,16.65184709158461,13.663700858012977,16.50207296697008,15.354945523376916,14.5536187736512,14.275346779977022,15.024960743439049,14.957555144364015,14.750276331006905,12.699895091660677,12.10412914335997,11.52976110477322,11.625456585190156,11.898388782056726,14.235058870475688,13.761826451197248,11.481617544836974,11.486504541436094,14.621999556530273,11.87963954602426,10.38750218267299,10.171412777714291,10.356782641504324,13.232658469772371,12.76140185838673,9.892371202359387,11.030626091636043,10.39645140174996,9.99000498524861,9.873892818966377,10.367756028294185,10.841386801510772,11.16860555862421,9.216676654230433,8.510390823706388,8.140888744375404,8.21637409309087,8.424075157661731,9.707701771786361,10.20480041442803,8.710445564754133,8.479103837421256,-26.262640947631454,-30.570304694741942,-28.24345089102331,-29.6090147428065,-38.243674824676795,-75.66218665712408,-52.597019149069794,-51.68875873113658,-11.448016877439109,-26.696578846931445,-22.912211006667214,-21.838787279692447,-19.53121230815464,-41.45432578956344,-44.64910481313154,-33.13959643532027,-7.278605013405641,-16.908860011626345,-14.276949921394314,-12.480058588370834,-7.255038968726939,1.9958618132989923,-10.50252227189557,-12.146502880298044,17,15,10,11,13,16,13,7,17,13,9,9,14,13,11,9,8,6,7,7,7,7,4,5,0,0,0,0,0,0,0,0,0,0,0,0,0,0,0,0,0,0,0,0,0,0,0,0,36554.99889132568,29699.09886506065,25968.755456682473,25428.53194428573,25891.95660376081,33081.64617443093,31903.504645966823,24730.928005898466,27576.565229090105,25991.1285043749,24975.012463121526,24684.732047415942,25919.390070735462,27103.467003776932,27921.513896560526,23041.691635576084,21275.97705926597,20352.22186093851,20540.935232727174,21060.187894154325,24269.254429465902,25512.001036070076,21776.11391188533,21197.75959355314,505.0192446519061,319.20570012873003,234.08854900032455,214.85832373268465,217.50551992731718,399.50516220121364,277.25216983286515,186.69296957551217,272.2929998379921,235.76889174244175,211.80775676460237,203.78542760802236,225.74869002466662,223.727939012944,217.57061288220493,161.28706303915507,146.49866795354103,132.9296038045624,135.15019649547895,141.57115161211408,202.63689576467573,189.38644195574267,131.82497975730104,131.93927964182535,14,14,5,3,5,22,7,7,13,8,4,3,11,13,6,4,2,0,0,0,7,2,0,0,1.0,emg_gestures,54.0,repeats_short,2018-05-11 14:05:34.118,1.0,33.589078220937424,0.0
34.79460997600126,25.195840576297556,18.724538895998837,16.038537085887423,15.648544258950192,16.267652747443503,23.427811824249094,16.407488941370435,14.722198504242485,17.265795501204096,15.7601572210931,15.075908349668586,14.863876748413078,17.0997602571246,16.76132567379998,14.868880112519651,13.373702537504627,12.330810195182027,11.695880629147323,11.848324256304164,12.240550973145952,15.721524269551704,14.979078994345723,11.405140120847998,11.666571795820186,18.395079156219786,13.512503412947414,11.731244335405785,11.810162570251272,12.684158756467356,17.521561848085742,12.634884603826338,11.271524125869824,12.474553381830498,11.252859634378312,10.993514360684363,10.974454422552915,13.189815978235579,12.942917503804411,11.376777095820799,10.206320380325991,9.029447611112126,8.500931640622952,8.652029202865094,9.076810263829337,11.716912413309474,11.47068550482045,8.586756755289903,8.837715091748754,-8.615172297265737,-10.510802178536789,-11.438924928319704,-13.24363923110998,-14.979941241441548,-13.05522180180293,-1.7920687270434001,-9.930854047910586,-11.567760375981276,-11.655728539603157,-11.20027058749402,-14.242874302999189,-15.578903735520342,-15.702003724930872,-24.92697735458586,-26.436593879987324,-13.106127607794996,-9.875423217667814,-8.271420533600352,-9.623434897585915,-9.348106895910494,-8.130857655949029,-15.11985478515995,-20.437972241485998,24,15,10,12,14,24,12,9,18,12,9,9,14,17,13,8,8,6,7,7,7,7,4,5,0,0,0,0,0,0,0,0,0,0,0,0,0,0,0,0,0,0,0,0,0,0,0,0,45987.69789054946,33781.258532368534,29328.11083851446,29525.406425628178,31710.39689116839,43803.90462021436,31587.211509565845,28178.81031467456,31186.383454576244,28132.14908594578,27483.785901710908,27436.13605638229,32974.53994558895,32357.293759511027,28441.942739551996,25515.800950814977,22573.619027780314,21252.329101557378,21630.073007162737,22692.025659573344,29292.281033273684,28676.713762051124,21466.891888224756,22094.287729371885,634.8299925052386,350.6063862628887,257.2300433122076,244.8687160426613,264.62820014819147,548.848276815945,269.17093411277074,216.7391944731363,298.1069745244507,248.38217217582144,227.2811331825415,220.932052927322,292.3947661296658,280.93717003704637,221.07899492436778,178.84958603955334,152.0488775156666,136.79347358123297,140.38160784237448,149.82961889481496,247.1629846312149,224.36397237933818,130.0768421428832,136.10840248894098,22,15,5,3,7,28,9,9,13,8,4,3,21,19,6,4,2,0,0,0,7,2,0,0,1.0,emg_gestures,54.0,repeats_short,2018-05-11 14:05:34.118,1.0,33.83302389485713,0.0
35.038555649920966,16.059718822837596,11.971318667381427,10.200997933020354,10.662575770199302,12.01475270865577,20.12009741128938,26.741137949495865,16.978118645043793,12.141404738797204,10.043645781464443,9.655293859310074,9.96106209964346,15.279990605842919,23.505712661863072,34.00080989522166,23.356946668216892,9.593808132635656,8.734116660425142,8.921925396545024,10.027684951222922,14.693272762406853,24.14877289462811,24.616796599302848,18.183046047761067,11.453741796708703,8.798978330193027,7.713225140455819,8.051354341750049,9.06655347396991,13.947811869671222,15.628082867239858,11.135492515099296,8.703247058407348,7.46874073967138,7.1258227121442035,7.267507506561329,10.774291518222299,14.3564413655221,18.841288741325318,13.4155317475277,6.946884834285351,6.24602506506788,6.265972032464991,6.916432938823782,9.962892239564932,13.678057191116569,13.022424965766405,10.964978346262583,9.380782771688681,20.58797672300379,14.360885761878398,15.315243521422495,22.24829791207113,55.99203616486462,47.68724176428375,35.19401093723004,6.926279397891875,5.887517967753073,14.207570514171634,13.441266357967281,18.6354232119848,28.486568505222337,26.32492530414488,64.48619730235018,5.082286426256436,24.735100797414013,18.02068497504288,17.771551961378712,24.601547995287344,52.43502860059564,52.820791715199206,53.25618399041882,10,2,1,2,2,15,13,11,8,2,1,3,9,15,17,9,2,2,2,2,5,11,14,8,0,0,0,0,0,0,1,0,0,0,0,0,0,0,0,0,0,0,0,0,0,0,0,0,28634.35449177176,21997.445825482566,19283.062851139548,20128.385854375123,22666.383684924775,34869.529674178055,39070.207168099645,27838.73128774824,21758.117646018367,18671.85184917845,17814.556780360508,18168.768766403322,26935.728795555748,35891.10341380525,47103.22185331329,33538.82936881925,17367.212085713378,15615.062662669701,15664.930081162478,17291.082347059455,24907.230598912327,34195.14297779142,32556.062414416014,27412.445865656457,257.843085198483,143.30440056153165,104.05975143348283,113.69042374601085,144.35415412992353,404.7969670731946,715.0855803160309,288.2409603425336,147.39817159524736,100.87311082643309,93.2246902823351,99.22250248334923,233.47391761695044,552.5184560099602,1156.0510856437209,545.5413533446033,92.03355773278874,76.28468716034634,79.599065754214,100.55119299148244,215.87891118260893,583.1384228008973,605.9864631012932,330.6181346413988,13,5,2,2,6,17,36,14,3,2,2,2,14,29,37,15,0,0,0,0,0,13,17,7,0.0,emg_gestures,54.0,repeats_short,2018-05-11 14:05:34.118,1.0,34.07696956877683,0.0
35.28250132384067,10.85216715854687,10.525463966360313,9.176866124856634,9.455184032733406,10.317522212041245,17.129428750582843,28.40362538418555,16.830757059297227,11.04447172428627,9.398752978506902,9.070253777080119,9.4400115334522,13.651428344578513,23.643582834613916,36.74802412266085,25.432772284699926,9.423937311936719,8.819149474549453,9.104054959173512,10.152709913690149,13.878638553946802,24.96758198988116,26.51774179386501,19.429409535229162,7.456351500824714,7.25321535476883,6.628816766088188,6.822117471506854,7.348532905763319,11.352539810448667,17.930082347868105,10.980405027410637,7.682516356009479,6.8170013735242305,6.478672422321795,6.680364247831537,9.121387135723435,14.418805577627689,22.594946695931053,16.04857552342379,6.814234001743144,6.364523364160945,6.4655607267270625,7.012241539467726,9.023137489589038,14.489179448369708,15.755825406052024,12.765377090192723,12.720336222803256,15.480188605721715,14.875504845638199,14.643180351883393,15.095001791427267,4.822618137604355,8.566653366666499,4.588205679801927,14.415996885442532,17.02925079348399,13.806291079226767,12.423247754624713,8.298621471805223,4.159776491974542,-11.86950296902986,14.50878336981257,12.214652831487765,9.177961279277328,8.89343874598378,7.995204144992403,8.230594321152871,7.886432285323394,22.72570228137129,17.91948317085965,3,2,1,2,2,7,20,11,6,2,1,3,9,14,24,16,2,2,2,2,5,15,17,10,0,0,0,0,0,0,1,0,0,0,0,0,0,0,0,0,0,0,0,0,0,0,0,0,18640.878752061784,18133.038386922075,16572.04191522047,17055.293678767135,18371.3322644083,28381.349526121667,44825.20586967026,27451.012568526592,19206.290890023698,17042.503433810576,16196.681055804487,16700.91061957884,22803.467839308585,36047.01394406922,56487.36673982763,40121.43880855948,17035.58500435786,15911.308410402364,16163.901816817655,17530.603848669314,22557.843723972594,36222.94862092427,39389.56351513006,31913.442725481807,117.76753084886526,110.78264335004296,84.21272978884224,89.3999068609206,106.45045528067227,293.4171515021537,806.7158587782535,283.27434178094956,121.97660150055094,88.33356264125955,82.26741432217318,89.11238011139035,186.36130042877747,559.0095072915424,1350.4096547480324,646.8226715576037,88.80749510204117,77.77515620655231,82.88267590997602,103.07703129082283,192.616349026362,623.3691370798128,703.1905939883105,377.5009070043591,5,4,2,2,4,11,37,12,3,2,2,2,4,23,42,16,0,0,0,0,0,13,21,7,0.0,emg_gestures,54.0,repeats_short,2018-05-11 14:05:34.118,0.0,34.320915242696536,0.0
35.526446997760374,6.535660373966993,6.371803134534074,6.24040105546252,6.399616279649815,6.812875033241863,9.535183287796121,15.407416922209784,9.085367492144561,6.399691648997068,6.162139404748651,6.0031318683903345,6.0279385854538505,7.7597780167339145,12.499944336406738,19.218010401912007,13.27234509843507,5.426976865096305,5.278649529489575,5.380223717897763,5.666906437987012,7.315956853981521,12.607891658309756,12.912574706874315,9.812090697363448,4.979180984888364,4.8225051821159886,4.721387326578285,4.866276412836092,5.169297748364556,7.335124915379942,11.653249232204004,7.032889524026573,4.948668770889686,4.705153636095678,4.5652971151357695,4.602769446127386,5.9777465526985845,9.336710926951879,13.741388780343259,9.471596248455098,4.096166551954554,3.9737564803238032,4.084499909431482,4.259521930167911,5.446801339017583,9.003672620808596,9.093678030313196,7.2313685516851995,7.228330317391302,0.7915542125301656,5.570149638788372,5.427217235190523,6.149445926310859,3.343417644854865,-9.523021934231018,7.057877138921192,-3.1802090978251663,9.404424456381053,1.6832400840531756,0.12066880731468288,-5.971646322312051,1.6855867153008717,7.508934269411526,-33.2689630928281,-5.011349778195129,-14.268234462084687,-9.638768395299758,-12.369984853021666,-20.938790368340783,-60.723710645000395,-43.45206066687986,-38.42484257163888,0,0,0,0,0,0,14,1,0,0,0,0,0,5,14,7,0,0,0,0,0,5,3,2,0,0,0,0,0,0,0,0,0,0,0,0,0,0,0,0,0,0,0,0,0,0,0,0,12447.95246222091,12056.26295528997,11803.468316445713,12165.691032090228,12923.24437091139,18337.812288449855,29133.12308051001,17582.223810066433,12371.671927224215,11762.884090239195,11413.242787839423,11506.923615318465,14944.366381746462,23341.777317379696,34353.47195085815,23678.990621137746,10240.416379886385,9934.391200809509,10211.249773578706,10648.804825419777,13617.003347543956,22509.181552021488,22734.19507578299,18078.421379213,42.71481316141491,40.59971233974261,38.942588132146504,40.95503287836261,46.414352502276465,90.90728368183291,237.36908760783217,82.54229220967417,40.95215315339939,37.96925183545942,36.0371211255895,36.33550524112248,60.21010404181348,156.24842978195267,369.3296462347386,176.15153314685455,29.451279007379398,27.857942779066764,28.93923688959707,32.106690921817986,53.50581532738542,158.9452755889816,166.73352408910029,96.2697010590883,1,1,1,2,2,0,6,1,0,1,0,0,2,1,6,1,0,0,0,0,0,0,4,0,0.0,emg_gestures,54.0,repeats_short,2018-05-11 14:05:34.118,0.0,34.56486091661624,0.0
35.77039267168008,5.351210271081118,5.3011545929271024,5.160702439524537,5.345375454171348,5.636129824517475,7.141472110152869,11.913892921963159,6.746034664847675,4.7882836841754575,4.955362991536741,4.799767918942232,4.748273055873026,6.1446724058591045,9.799468670898285,14.10574720427135,7.491330744532244,3.5722803597624257,3.5036051328916034,3.61753762147721,3.8684431222331552,5.012375596161495,9.10515135042447,9.255641699772603,6.488039171337199,4.019372112197849,3.974611594850301,3.8958832977849154,4.034823441697688,4.24000457320797,5.483708518834232,9.085262577392298,5.164551885319143,3.6922977192955777,3.7572909200146287,3.6496090740558866,3.6609949211718327,4.705520331771062,7.302644451285072,10.534852720983352,5.827947985109556,2.8244184231986886,2.783614172904299,2.8891658184713878,3.070530525366461,3.9039363555440776,6.95052716742585,7.2233700353623655,5.114709357909609,-18.184967705606724,-20.05086681895323,-17.81774914829024,-17.43541675693256,-16.96860285631042,-0.610966069744781,-11.139260688842482,-5.163841280805561,-14.9474799137299,-18.886234472255197,-16.56498820379497,-12.22601721103785,-6.607709085601255,-4.341398204864763,17.442279909424776,-8.10010943731511,-9.703394003957158,-7.201781154656488,-5.351810900825664,-4.274271728162454,-1.207256602938429,-2.239247611491309,-20.34946340683957,-12.186071487815173,0,0,0,0,0,0,6,0,0,0,0,0,0,1,12,0,0,0,0,0,0,0,0,0,0,0,0,0,0,0,0,0,0,0,0,0,0,0,0,0,0,0,0,0,0,0,0,0,10048.430280494622,9936.528987125752,9739.708244462288,10087.05860424422,10600.011433019925,13709.27129708558,22713.156443480744,12911.379713297858,9230.744298238944,9393.227300036571,9124.022685139716,9152.487302929581,11763.800829427655,18256.61112821268,26337.13180245838,14569.86996277389,7061.046057996722,6959.035432260747,7222.914546178469,7676.326313416153,9759.840888860193,17376.317918564626,18058.425088405915,12786.773394774023,28.635400408368284,28.102095352203655,26.632787737495708,28.57294960234034,31.765843417219177,51.000594537058625,141.88715030105155,45.50323936849589,22.927660636831767,24.555533706074836,23.037635576856974,22.546065446689695,37.755720623021816,96.01462462009827,198.9702554836189,56.118537290431895,12.761004892136858,12.275208934113046,13.086558775662336,14.964536933878305,25.12150753710066,82.88182587058867,85.66412294287038,42.09416197924146,1,1,1,2,2,0,3,1,0,1,0,0,2,1,1,0,0,0,0,0,0,0,0,0,0.0,emg_gestures,54.0,repeats_short,2018-05-11 14:05:34.118,0.0,34.808806590535944,0.0
36.01433834559978,5.079071852369378,4.996671048618289,4.8693541509946865,5.126370459567071,5.397991470607635,6.834538394287118,10.557404094346504,5.9926869602272,4.483469775058817,4.708076101166917,4.574151703693591,4.5206717653328345,5.693761378437094,8.618639106618204,12.91645515593987,7.236780984892868,3.625565641745972,3.4501459144134046,3.442936818765741,3.714565387312697,4.366416993113678,7.8598509602007445,9.533520987794308,6.874277908233834,3.746424215917498,3.7284092692558044,3.68455553948335,3.8344312446193287,4.068484915249348,5.212845628971616,8.039327566302823,4.547550971004208,3.4029894874732616,3.5164849743423257,3.4579578315548947,3.458896003294841,4.423730692671076,6.631202305206337,9.795890584380377,5.606063487131759,2.893370008777322,2.771075695486556,2.7880259307860085,3.016170127336819,3.4862614622072345,6.295867526560972,7.601543768734928,5.4490150537206485,-0.6433192461812913,-1.0872142687377,-1.298016492562188,-1.3776608830176942,-1.275606025127372,7.65661360420924,16.71093212652871,6.472854703182915,1.1580182095403408,-0.2886094203549314,-0.9167304760340258,-0.38022431388023303,3.0678238622667013,3.6333915254152975,-3.7452771070777544,0.6585957455758988,-2.1358885265042726,-2.4060416358082986,-0.33326547147841,0.8912679461703057,3.562483814658295,5.902700176668546,-8.787230872115734,-6.047790639699695,0,0,0,0,0,0,3,0,0,0,0,0,0,0,10,0,0,0,0,0,0,0,0,0,0,0,0,0,0,0,0,0,0,0,0,0,0,0,0,0,0,0,0,0,0,0,0,0,9366.060539793745,9321.02317313951,9211.388848708375,9586.078111548322,10171.21228812337,13032.11407242904,20098.31891575706,11368.877427510519,8507.473718683153,8791.212435855814,8644.894578887237,8647.240008237102,11059.326731677691,16578.00576301584,24489.72646095094,14015.158717829396,7233.425021943305,6927.689238716391,6970.064826965021,7540.425318342048,8715.653655518086,15739.668816402429,19003.85942183732,13622.537634301621,25.796941927216544,24.96669909849084,23.710593038142317,26.279626957966045,29.138307204162974,46.71089330888868,111.45840656570294,35.91224787893693,20.101486075300187,22.16597541931061,20.922863758381485,20.436469052622478,32.41881471275048,74.28035146464475,166.83126949778242,52.36984308918271,13.144703301472651,11.903504012454592,11.85379889515643,13.797995485839262,19.0655808127634,61.77467093391545,90.88653979957054,47.25515211523502,0,0,0,0,0,0,1,0,0,0,0,0,0,0,0,0,0,0,0,0,0,0,0,0,0.0,emg_gestures,54.0,repeats_short,2018-05-11 14:05:34.118,0.0,35.05275226445565,0.0
36.258284019519486,5.092327128179518,5.0274927485136125,4.932029360987858,5.175493069472336,5.436365924388002,6.574408619749412,10.20949749886511,5.797978026386522,4.551211953149723,4.764611816167763,4.631577560156209,4.539570370086317,5.827166470227797,8.64949073444481,12.521164849124014,7.162338542690624,3.676479917071674,3.5109453935639925,3.4720991389642664,3.646156100624778,4.260677762347815,7.294466601825262,8.856306309299033,6.3121195611859005,3.7394912507875357,3.723662246776934,3.7216332752608365,3.8354497241356658,4.047033213218713,4.941283869434558,7.77197368876841,4.424551251519547,3.380905380180721,3.5013358540113497,3.4795936103371248,3.436875814035256,4.513586707087076,6.687734583745919,9.50575545198203,5.433190283111228,2.9609997145801112,2.838528753901213,2.8364268344684485,2.9601205383002767,3.4001734631404665,5.879051195192478,6.936696866513173,4.912842843101121,4.806259550496357,4.65159005439453,2.649860528442061,3.1150945058967086,3.492981423608094,3.6886956762491305,-0.35034299095060994,-0.11913910756100599,3.8335747951492976,4.21494414637497,3.8365544448183115,2.5769290058585153,2.42037507886492,3.2105727510014974,14.72839634375352,9.668493797881935,0.6017035532957866,0.6887716570409301,0.2802252223090651,0.742329285175857,-0.08932102111842255,5.61993190658713,1.895191573041446,0.7685660809989372,0,0,0,0,0,0,2,0,0,0,0,0,0,0,5,0,0,0,0,0,0,0,0,0,0,0,0,0,0,0,0,0,0,0,0,0,0,0,0,0,0,0,0,0,0,0,0,0,9348.72812696884,9309.155616942335,9304.083188152092,9588.624310339164,10117.583033046782,12353.209673586396,19429.934221921027,11061.378128798868,8452.263450451803,8753.339635028375,8698.984025842812,8592.18953508814,11283.966767717691,16719.336459364797,23764.388629955072,13582.97570777807,7402.499286450278,7096.321884753033,7091.067086171121,7400.301345750691,8500.433657851167,14697.627987981194,17341.742166282933,12282.107107752803,25.931413588343393,25.275351836634457,24.32425040903611,26.7851205092618,29.553801958848716,43.222525703921505,104.23328182249989,33.61630500974118,20.713330366951237,22.701520297201327,21.4511381886716,20.607222507637687,33.95575109105635,74.81323523718791,156.772553905303,51.29876464723847,13.516444081634042,12.326539851923762,12.055103887631146,13.293715516747458,18.15239463908297,53.204874642953534,78.43265967063279,39.84249345974396,0,0,0,0,0,0,5,0,0,0,0,0,0,0,0,0,0,0,0,0,0,0,0,0,0.0,emg_gestures,54.0,repeats_short,2018-05-11 14:05:34.118,0.0,35.29669793837535,0.0
36.50222969343919,5.090753307875593,5.041552499143255,4.965822090796205,5.246319712000862,5.495835652282679,6.705977996199445,10.04919889079332,5.700992784351772,4.4627157347721,4.755563202795053,4.661227311224081,4.5982050656660345,5.731411065644697,8.099364808348783,11.402634711276153,6.500223819610736,3.5186099569079237,3.456840612387399,3.5660522802000365,3.7575446633738583,4.625644512390989,7.834168896666156,8.108218748083782,5.625599748446072,3.773519288730251,3.7528991354364973,3.754676181098161,3.935742803393776,4.121855547743047,5.101693221411187,7.668833649007787,4.351074003530431,3.295826893686699,3.474274075380915,3.519844893266561,3.492652221290048,4.464336668216003,6.286341927410989,8.734032045076233,4.989839223273399,2.8304083810364413,2.7953706882640286,2.9111501949092418,3.047949668922482,3.699895927743102,6.0312686565315,6.310077014422532,4.443941922510526,6.395957326404092,7.813566019504626,8.940943807993754,8.104429105947109,7.680229423290441,2.5408535534982217,-0.6854469703493624,-0.9561191934189504,6.164845706618856,6.3227766019480764,6.38022821434631,6.105903607996341,5.869438301276909,8.143739641951857,11.2639613658298,5.885542637260203,7.100288754675778,6.000369640465624,5.612648994371053,5.985374760831058,7.052392597177069,7.281640269722567,17.046388733618045,12.761727536777467,0,0,0,0,0,0,1,0,0,0,0,0,0,0,3,0,0,0,0,0,0,0,0,0,0,0,0,0,0,0,0,0,0,0,0,0,0,0,0,0,0,0,0,0,0,0,0,0,9433.798221825627,9382.247838591244,9386.690452745403,9839.35700848444,10304.63886935762,12754.233053527969,19172.084122519467,10877.685008826076,8239.567234216747,8685.685188452288,8799.612233166403,8731.63055322512,11160.841670540007,15715.854818527472,21835.080112690583,12474.598058183497,7076.020952591103,6988.426720660072,7277.875487273104,7619.874172306205,9249.739819357756,15078.17164132875,15775.192536056331,11109.854806276317,25.91541438319524,25.416650054219822,24.658796863817347,27.523561076250555,30.203192194932058,44.96888634163775,100.98599734757735,32.501293630729684,19.915655990536123,22.61496239369902,21.726572161929,21.142927973528437,32.848852366292945,65.59942503514738,130.01760642199352,42.24984670652604,12.380515039436498,11.949525047402362,12.716583289675036,14.119009955588021,21.396582596593227,61.37364080180335,65.74129800403296,31.645737303710288,0,0,0,0,0,0,4,0,0,0,0,0,0,0,0,0,0,0,0,0,0,0,0,0,0.0,emg_gestures,54.0,repeats_short,2018-05-11 14:05:34.118,0.0,35.54064361229506,0.0
36.746175367358894,5.242953529720569,5.224013439151134,5.115519891605034,5.410215058681026,5.675355967403785,6.817318770329083,10.607575197389293,6.05046966329917,4.594172999093522,4.960170078447626,4.7740964980846465,4.740346789489175,5.819725591927485,7.990408967305326,11.175934845242315,6.292276251615369,3.562894664687676,3.5381796202069733,3.7024647286259325,3.9886511910020306,4.899056228507365,8.115142207618545,7.6334014429850505,5.49667088090782,3.882866637897369,3.892522171037078,3.8724297353387342,4.081274247539772,4.270313674852664,5.370709091046163,8.136785318361563,4.582821929601859,3.372717320985823,3.595907186026828,3.610219900262261,3.635790361716564,4.5431759145525,6.151626356617766,8.59250153526385,4.845811439909651,2.8051027898976963,2.8127643041427457,2.9430530247701605,3.1752820972246205,3.8611322345344337,6.118733287807525,5.9664437100736425,4.304059328519719,-5.170865834965167,-4.338976476648671,-2.5663732937943298,-1.536455874768853,-0.4934187214691832,11.843915121716446,14.057164962958447,-0.5544056543698459,-3.3700350031250936,-3.459988954315617,-1.8301389866429236,-1.182277696427863,0.8176915055991136,9.138100389248494,3.6058840397715386,-0.6726722981350655,-0.17383535315609322,-1.4157599678758803,-1.2097109093550404,-2.9319657076158485,-2.77240658310744,-10.244504958364885,-6.165111185236501,-0.5576852803284726,0,0,0,0,0,0,4,0,0,0,0,0,0,0,6,0,0,0,0,0,0,0,0,0,0,0,0,0,0,0,0,0,0,0,0,0,0,0,0,0,0,0,0,0,0,0,0,0,9707.166594743423,9731.305427592695,9681.074338346836,10203.185618849431,10675.78418713166,13426.772727615407,20341.963295903908,11457.054824004646,8431.793302464557,8989.76796506707,9025.549750655653,9089.47590429141,11357.93978638125,15379.065891544415,21481.253838159624,12114.528599774128,7012.756974744241,7031.910760356865,7357.632561925401,7938.205243061551,9652.830586336084,15296.833219518812,14916.109275184106,10760.148321299297,27.48846421623007,27.290043882818118,26.168430459304822,29.270216455329816,32.20963710571172,46.46930041008954,112.5032720445046,36.607452178981916,21.106411595896535,24.603283943684513,22.79195062946945,22.470887447695073,33.86802721931449,63.84125364542792,124.89182919497975,39.59141828022852,12.694205743594592,12.518615513711698,13.70814297098692,15.90905599408279,24.00029837724156,65.85387064937983,58.26833851812517,30.213356855745463,0,0,0,0,0,0,0,0,0,0,0,0,0,0,0,0,0,0,0,0,0,0,0,0,0.0,emg_gestures,54.0,repeats_short,2018-05-11 14:05:34.118,0.0,35.78458928621476,0.0
36.9901210412786,5.489616024922924,5.467282345771525,5.284710903156786,5.585096460349462,5.968956402884406,6.736566796042581,10.017194875108354,6.124893253440484,4.852453935940477,5.212711593990622,4.976507470346464,4.94184266826566,5.906147140057993,7.747632906158437,10.516167123672984,6.10530444205112,3.7615560079343617,3.7095631062566974,3.7747281005606803,4.0939148782139085,4.722699818223358,7.492992475459517,6.589067633093213,4.833205595937929,4.015619538518034,4.022595329011092,3.9517060180967545,4.075486365491326,4.390543496859298,5.285441694079387,7.668672083121291,4.654543087750382,3.5663837940445235,3.8041715204877344,3.719214190128395,3.779688808057735,4.504392621725391,5.911747959510631,8.022669709179624,4.6573936282568305,2.9048930458935813,2.9096240146764494,2.946007445248116,3.215852256233207,3.6616227283422194,5.656789037925227,5.1469972096090055,3.7484030554535943,-4.422371474770778,-4.584610590505887,-5.473407988932266,-4.775495746858356,-6.659825420233744,-18.386112399885427,-33.902668105491344,-9.933213091269778,-6.904323210828219,-4.366051062320707,-5.2649522322834,-4.803691781691669,-9.487217439907916,-13.527635331705326,-23.349943094924857,-11.463413906651136,-8.095507539485759,-5.497658859997628,-5.532556281167645,-6.366022501550071,-8.230327699392674,-11.451957228478083,-18.58815360128341,-15.253732332722574,0,0,0,0,0,0,3,0,0,0,0,0,0,0,3,0,0,0,0,0,0,0,0,0,0,0,0,0,0,0,0,0,0,0,0,0,0,0,0,0,0,0,0,0,0,0,0,0,10039.048846295083,10056.48832252773,9879.265045241886,10188.715913728314,10976.358742148244,13213.604235198469,19171.680207803227,11636.357719375956,8915.959485111309,9510.428801219336,9298.035475320987,9449.222020144338,11260.98155431348,14779.369898776578,20056.674272949058,11643.484070642076,7262.232614733954,7274.060036691123,7365.01861312029,8039.630640583017,9154.056820855549,14141.972594813067,12867.493024022515,9371.007638633986,30.134248753183744,29.889049854033836,27.926156327114498,31.19148691942184,35.625980047019866,45.36849759513989,100.33079496768251,37.512792879940406,23.5454783702785,27.170746791232332,24.76436922116121,24.420488202096934,34.88145786317118,60.01820075785436,110.58667956831788,37.27471249193249,14.148739852501055,13.760414781856657,14.248228972123657,16.759740407217624,22.30381815399548,56.144933259402436,43.41493554386369,23.358810019451088,0,0,0,0,0,0,0,0,0,0,0,0,0,0,0,0,0,0,0,0,0,0,0,0,0.0,emg_gestures,54.0,repeats_short,2018-05-11 14:05:34.118,0.0,36.028534960134465,0.0
37.2340667151983,5.410148776543871,5.339535712269211,5.192014131526991,5.5030543708643,5.978014087077064,7.190698710337056,10.10672950326344,6.12653032545265,4.773147755583877,5.045195129293149,4.875311301347798,4.8163484494982525,5.944981395654172,7.849537137424613,11.48723438974155,6.548614964107339,3.761867668552249,3.609169016600155,3.639803645758708,3.8975093479785667,4.57424394351677,7.523725645882823,7.554885662345647,5.192664841555484,4.074960126297339,4.0352676327988535,3.9618021358820283,4.102946302731079,4.515728893780865,5.596819693481271,7.760972129430357,4.780100976126973,3.6085575838465096,3.779901056280319,3.724974421461501,3.7070551256008026,4.588132680340234,6.148241809992117,8.937095001569487,5.120623298235347,2.954845939619866,2.848184629422891,2.866371557502099,3.0662245685393223,3.613023175849678,5.867976906407613,5.90472731050827,4.070674676208052,6.960444561644028,6.832431557051282,6.506643811424364,8.07306174715381,7.5325761571405305,-1.1614157322391598,-7.164756317464061,2.8431446324862097,4.906652370053331,5.706829474779941,4.760367098138007,4.08245492525624,4.540059426666567,-0.7134122071528957,0.4523169070927011,2.2535590111943993,4.900116915279943,3.509029440963382,3.9926686633705626,4.7410518671619615,3.06644739092194,9.951425276731772,16.65340022105932,9.176549647872369,0,0,0,0,0,0,3,0,0,0,0,0,0,0,4,0,0,0,0,0,0,0,0,0,0,0,0,0,0,0,0,0,0,0,0,0,0,0,0,0,0,0,0,0,0,0,0,0,10187.400315743347,10088.169081997134,9904.50533970507,10257.365756827696,11289.322234452162,13992.049233703176,19402.430323575893,11950.252440317432,9021.393959616275,9449.752640700797,9312.436053653752,9267.637814002006,11470.331700850584,15370.604524980292,22342.73750392372,12801.558245588367,7387.114849049665,7120.461573557228,7165.928893755248,7665.561421348306,9032.557939624196,14669.942266019032,14761.818276270675,10176.68669052013,29.269190077391954,28.509754151628727,26.95651290513779,30.282705012803035,35.7364925482156,51.705369411533965,102.14450607108105,37.53424068950816,22.78253524464918,25.453478780522424,23.768289637328852,23.196997587895073,35.34268720573797,61.615139667734105,131.95642003682642,42.884300788743275,14.15143190565567,13.026077481271939,13.248045302844336,15.190572388936724,20.92290509913604,56.604407165891374,57.07601692796999,26.96375516575785,0,0,0,0,0,0,2,0,0,0,0,0,0,0,0,0,0,0,0,0,0,0,0,0,0.0,emg_gestures,54.0,repeats_short,2018-05-11 14:05:34.118,0.0,36.27248063405417,0.0
37.47801238911801,5.395954726959464,5.322852547200389,5.205932050336304,5.55331640906922,5.902274324661266,7.392791210324693,10.788216240033101,6.392972722301519,4.773514643718187,5.034710716536144,4.887185330968678,4.7371977692459755,6.021465990738747,8.344107785251895,11.735122276152884,6.678696384761348,3.731706299962344,3.5611569576926523,3.6550365671642364,3.761757587774414,4.650723765879928,8.031595689893082,8.2868748780545,5.589095343389389,4.063527669960133,4.014543847433271,3.9459069005340206,4.186376398095576,4.448827117637576,5.716209133265201,8.357439651735127,5.008465491016664,3.602704388328877,3.7254322553571058,3.725615879181308,3.6161474832197915,4.677961594618611,6.556265453113327,9.343114086758474,5.231292037243985,2.9496889508119826,2.7926130075353774,2.8811984650639837,2.9654023110502834,3.6796646067539367,6.268654342906495,6.545136081335049,4.382773989343606,-1.3798253300492846,-0.9934750879893994,-2.4003159975002912,-2.6611339010894755,-1.6610757022776612,10.944326520471872,24.724677414229866,5.668443300233302,1.4789313802145578,1.4473130300649837,-1.7062325870944046,-1.4830800817296859,0.38158165466649585,7.514544345448385,15.13235723549397,7.823399207768489,0.7745752933489793,-1.618277532312597,-2.763613532545483,-3.575891290824012,-4.473209515704509,-4.4415206555723445,-0.40021303513350404,1.8188118765449204,0,0,0,0,0,0,2,0,0,0,0,0,0,0,3,0,0,0,0,0,0,0,0,0,0,0,0,0,0,0,0,0,0,0,0,0,0,0,0,0,0,0,0,0,0,0,0,0,10158.819174900333,10036.359618583178,9864.767251335052,10465.94099523894,11122.067794093939,14290.522833163002,20893.599129337817,12521.16372754166,9006.760970822193,9313.580638392765,9314.03969795327,9040.368708049478,11694.903986546527,16390.66363278332,23357.785216896184,13078.230093109962,7374.222377029956,6981.532518838443,7202.99616265996,7413.505777625709,9199.161516884842,15671.635857266238,16362.840203337622,10956.934973359017,29.115374954639375,28.33171736664316,27.10074689588547,30.83806246422167,34.83570018738344,54.644746956033735,116.38349075968112,40.86773787346161,22.785832104793712,25.347159581802917,23.884110171293443,22.440555191807977,36.25658941038295,69.61925055784099,137.71308529212217,44.60491045829996,13.924605725489796,12.681170517790315,13.358746933705378,14.150152582696995,21.62917554103524,64.50332068925835,68.66936979934277,31.237910441461867,0,0,0,0,0,0,2,0,0,0,0,0,0,0,0,0,0,0,0,0,0,0,0,0,0.0,emg_gestures,54.0,repeats_short,2018-05-11 14:05:34.118,0.0,36.51642630797387,0.0
37.72195806303771,5.416945232423159,5.3344167089105765,5.184147775147737,5.463251135982177,5.652033649318435,6.600828078634418,9.731732391011919,6.390405120240074,4.789392582655322,5.083331692887634,4.924129129233459,4.7718961530425945,5.644448972549387,7.882547421482323,9.844801716544172,6.330511673986801,3.7321350588964903,3.7213044767274077,3.8043176973241204,3.9120790262846477,4.632112047961933,7.713760841416973,7.625268647122581,5.406064286395072,4.003024723520707,3.9358835887287102,3.8686707392499664,4.045018889926258,4.140088381449223,5.056838633321846,7.4964437653606755,4.9701127415643604,3.6012893060900906,3.748665266880724,3.6999652703069894,3.602994515991892,4.335269281043991,6.052394989753952,7.778905488656687,4.779545480197837,2.9761094040329765,2.926291582673146,3.005159665048543,3.105229984110604,3.639046561681642,5.862993058208652,5.896280631577705,4.157973858605073,-0.839421646731842,-1.2004284324298737,-2.1332704128830486,-5.229964308427785,-6.053921051813153,-10.522564264234349,3.9300241661407913,-2.886659750947701,-2.8402994739236487,-3.792173620461717,-1.1250864024937228,-1.8593966343376414,-4.526819117688995,-7.88938867669378,-17.824772895066964,-8.352631548500277,-4.062343731176779,-1.8670545254736677,-1.7398776835468954,-1.2780380803017746,-1.4046117262839664,-6.6794815042258495,-12.261837900430116,-12.751071590931277,0,0,0,0,0,0,0,0,0,0,0,0,0,0,0,0,0,0,0,0,0,0,0,0,0,0,0,0,0,0,0,0,0,0,0,0,0,0,0,0,0,0,0,0,0,0,0,0,10007.561808801769,9839.708971821776,9671.676848124916,10112.547224815644,10350.220953623057,12642.096583304614,18741.10941340169,12425.281853910901,9003.223265225226,9371.66316720181,9249.913175767473,9007.48628997973,10838.173202609978,15130.987474384881,19447.263721641717,11948.863700494592,7440.273510082441,7315.728956682866,7512.899162621357,7763.07496027651,9097.616404204105,14657.482645521628,14740.701578944263,10394.934646512684,29.342441376560497,28.45536814383784,26.874373755733156,29.84620230914011,31.945052513353918,43.57060909190435,94.7065705651659,40.83722043208114,22.938156873079464,25.840074485656952,24.24656455186317,22.770720198578918,31.859734107481653,62.13417427134953,96.91970019493392,40.07478126831186,13.928761705523344,13.847895060580417,14.472711743753633,15.304323919976042,21.456201101062977,59.50099128996324,58.14366630350224,29.225453172685317,0,0,0,0,0,0,0,0,0,0,0,0,0,0,0,0,0,0,0,0,0,0,0,0,0.0,emg_gestures,54.0,repeats_short,2018-05-11 14:05:34.118,0.0,36.76037198189358,0.0
37.965903736957415,5.498765929925591,5.3866452353484116,5.212951448460005,5.453148277919179,5.629382952101473,6.637108640462131,10.047102714197358,6.386881407215704,4.852549095056438,5.159668683408373,4.9408687696337195,4.840143539023281,5.63916551888831,7.64918472802223,10.521854023703545,6.747524775910126,3.747185510788984,3.7187253079600295,3.839105909421085,3.9779609802270284,4.689726256637916,7.4620165395177676,7.254910173469481,5.31060671200637,4.015284519975916,3.916538795417719,3.8327668516018734,3.978457316358851,4.0621893115490835,5.118740452596695,7.763223194277278,4.84906413398826,3.5944187088473307,3.744588341274805,3.652267939544357,3.592059322746382,4.267536077916498,5.871615816823843,8.190275564403645,5.003757046717763,2.9422436637174307,2.9021710571913832,3.0132326409764523,3.1238152816988274,3.6683528622115555,5.737628863185853,5.533265170612782,4.003196362507938,-3.604626823984069,-4.716148893892101,-3.4415824097587864,-3.906046344945727,-3.5754046460651656,-5.887636959883678,-3.9386784484813653,-6.097801419342364,-4.0578866213613995,-6.871485737400386,-3.3584363670225033,-4.338565940057422,-1.549057494089939,-4.998297756251748,-5.195272535867337,-5.990185057712306,-3.087472853739186,-3.1232828093246567,-3.0584970199896544,-3.3317931338287625,-3.9460578301115943,-0.5516891924148357,-10.573634765608038,-9.111511686073122,0,0,0,0,0,0,1,0,0,0,0,0,0,0,1,0,0,0,0,0,0,0,0,0,0,0,0,0,0,0,0,0,0,0,0,0,0,0,0,0,0,0,0,0,0,0,0,0,10038.21129993979,9791.346988544297,9581.917129004683,9946.143290897127,10155.473278872709,12796.851131491738,19408.057985693194,12122.66033497065,8986.046772118327,9361.470853187013,9130.669848860893,8980.148306865955,10668.840194791244,14679.039542059607,20475.688911009114,12509.392616794408,7355.609159293577,7255.427642978458,7533.081602441131,7809.538204247068,9170.882155528889,14344.072157964632,13833.162926531953,10007.990906269846,30.22521299363043,29.004234266200196,27.16023705279874,29.71675518961635,31.66973397192646,44.0238900430518,100.93675118599558,40.776306945564414,23.536717160882965,26.612254039887485,24.400745602278203,23.414429295995685,31.782369713888276,58.50078633501758,110.70935776435128,45.525390957351355,14.029525071231943,13.818358353965024,14.72640056058481,15.810120606143428,21.974643831495936,55.6525448682263,52.61953048388133,28.192744264220558,0,0,0,0,0,0,0,0,0,0,0,0,0,0,0,0,0,0,0,0,0,0,0,0,0.0,emg_gestures,54.0,repeats_short,2018-05-11 14:05:34.118,0.0,37.00431765581328,0.0
43.08876288927121,8.445707552820977,8.838656886049586,7.537061497983931,7.794328660027709,8.36168301217648,13.216952240476537,19.909253121660438,11.045997038186174,8.835419534998609,7.54376719757498,7.185080926721353,7.2355604908561615,9.201946760788768,14.79747137527482,23.832343565959373,17.35840579631663,7.192755928501661,6.268319397272231,6.314147438505802,6.754939836760024,8.463601738127775,13.73887569405195,14.597056382617176,12.600866285946692,6.499153963416866,6.820758156528482,5.94119712363458,6.1392250738235115,6.580962203784202,10.08952083624082,15.769066527705563,8.51041827350932,6.930403817014079,5.882141054420619,5.6155131820139,5.652560262522954,7.282043853907738,11.678914060736362,17.768784026601974,12.339205132774252,5.790007538271324,4.989833692758882,4.995302644926669,5.257697903040547,6.454520112749292,10.444534092760007,10.966504567382085,9.632822534709314,-5.0880528539163326,-5.536607696876956,-2.694255201985376,-2.2162893622391735,-2.309472480238693,-3.074170883528648,1.0790817537805246,-16.803122672522186,-7.4192654128049975,-5.399349584501876,-2.5290510563692585,-2.1305115328304502,-0.8381410539697018,-8.711986598818424,-18.989498912489914,-16.606317820596768,0.11467503788343159,0.3635322818267763,-0.029333055091528948,-1.2766754928141673,-1.368114832275138,-16.05738695118281,-5.187849501875085,1.0390983968553726,1,3,0,0,0,5,30,3,0,0,0,0,0,9,22,11,0,0,0,0,0,7,7,8,0,0,0,0,0,0,0,0,0,0,0,0,0,0,0,0,0,0,0,0,0,0,0,0,16247.884908542164,17051.895391321206,14852.992809086449,15348.06268455878,16452.405509460506,25223.802090602054,39422.66631926391,21276.0456837733,17326.009542535197,14705.352636051548,14038.782955034749,14131.400656307385,18205.109634769346,29197.285151840904,44421.96006650494,30848.01283193563,14475.018845678309,12474.584231897205,12488.256612316673,13144.244757601366,16136.300281873231,26111.335231900015,27416.26141845521,24082.056336773287,71.3232972492052,78.11448555145188,56.798044723322384,60.73953019341098,69.90618419792601,174.68227218889004,396.3578165209305,121.99497886048742,78.05127250642153,56.89541235715903,51.61323705675507,52.338805296491806,84.64893054237864,218.92298576158228,567.89041894523,301.29136923476784,51.72005658455145,39.2775082427528,39.85535124223909,45.613115225693385,71.61432804200402,188.73233227957408,213.04604812685525,158.76284172774996,0,0,0,0,0,0,17,0,0,0,0,0,0,0,12,4,0,0,0,0,0,0,0,0,0.0,emg_gestures,54.0,repeats_short,2018-05-11 14:05:34.118,3.0,42.127176808127075,0.0
43.33270856319091,8.455221539797577,8.537221805062417,7.64518888633929,7.933364389310056,8.819514292867163,13.377174188916987,18.74408063115408,10.181653928176283,8.746927828773716,8.008108663968915,7.3998648518764965,7.538847786599453,10.19015409058502,15.634522775191313,22.977264995862047,12.975576131679865,7.283927291133729,6.684931423676079,6.633710877335756,6.967174308113008,8.577468895326188,13.6518215165013,13.986144291464903,11.193909555745469,6.63790413605868,6.621610706761584,6.122203353741579,6.35562703345807,6.95906010344693,10.202307917596096,14.550092234203124,7.997717356231449,6.9555103159078975,6.365979034244561,5.881909546646931,5.989691707072004,7.984214125849263,12.390599814771132,17.34342649808237,10.221247538264791,5.8097090539699785,5.297875385052384,5.295130412372511,5.537911696602973,6.703042389568857,10.524218958543976,10.715346817379112,8.694130557717221,2.4739161745010065,-2.489854573819649,-2.6670910502006198,-3.739427892653829,-0.4053075264670323,10.534321704788471,5.417338638244065,2.798062466658939,4.799188343566161,0.8277870505363563,-2.7265504795601228,-0.11159783080997165,3.7080486760887545,4.624908602605517,1.9633403251949524,-5.777176874976977,-4.798846358371304,-0.609680609124406,2.4771908778440377,0.5409290350372551,0.8079630661471029,-8.221012146045474,-4.415543775589242,-10.077065510936691,0,1,0,0,1,5,22,1,0,0,0,0,1,6,26,6,0,0,0,0,1,9,3,4,0,0,0,0,0,0,0,0,0,0,0,0,0,0,0,0,0,0,0,0,0,0,0,0,16594.7603401467,16554.02676690396,15305.508384353947,15889.067583645176,17397.650258617326,25505.76979399024,36375.23058550781,19994.293390578623,17388.775789769745,15914.947585611404,14704.773866617326,14974.22926768001,19960.535314623157,30976.49953692783,43358.56624520592,25553.11884566198,14524.272634924946,13244.68846263096,13237.826030931277,13844.779241507433,16757.605973922142,26310.54739635994,26788.367043447783,21735.326394293053,71.49075694684781,72.88266759488559,58.448736583116734,62.93793838076247,77.78165042477879,178.9059270306132,351.22242931758177,103.65892993864416,76.50742498212132,64.12974587166865,54.75741806730036,56.831951329224694,103.82353014498764,244.38985579653354,527.9048671106881,168.35735089280755,53.05329239301679,44.68690188398574,44.0047670957369,48.53871234123967,73.5690636630964,186.37005707381402,195.61183409818784,125.30356453369298,0,0,0,0,0,0,15,0,0,0,0,0,0,3,17,0,0,0,0,0,0,0,0,0,0.0,emg_gestures,54.0,repeats_short,2018-05-11 14:05:34.118,0.0,42.37112248204678,0.0
43.57665423711062,7.963245845136346,7.651808666885778,7.132415607882467,7.4682616266472674,8.280753497861097,11.194791306952556,15.583804725248925,9.652557908442455,8.05211892687571,7.638001291471133,7.021029504815164,7.2098266242847195,9.934050660672812,14.894756324475741,21.69463442802691,12.182023374909429,6.891584793885649,6.409180062532438,6.431654282118232,6.766710025664999,8.193963675454508,12.034629858407593,13.200906552942262,10.86119603514604,6.276654387980663,5.926317659267554,5.556960411831881,5.807470372771868,6.410111633340575,8.727113341785664,11.746388132761583,7.529191586018888,6.393009462392518,5.939834543746682,5.443632879662649,5.594917976023863,7.733512932886765,11.4858889344881,15.716566470403565,9.370733002565778,5.417235284021827,5.020092763400516,5.10833458890856,5.413528240639589,6.555488330893774,9.347657865722807,10.204812947407225,8.482504194888879,12.627278365692682,13.302420586364955,14.315148610292294,16.235282707511647,13.569814652243721,10.30410347057717,23.628695894789875,19.17051331296612,13.50586360560933,13.833983604269111,12.633504277265725,13.285760324265294,11.588285637104917,17.910265623454308,26.841563676167805,21.543638497153147,4.851421672244823,5.890672306804696,7.054636105067763,9.864281962926311,13.238983457950484,33.85814872599877,21.527360619893773,8.498943378212063,0,0,0,0,1,2,7,2,0,0,0,0,1,5,24,6,0,0,0,0,0,5,3,3,0,0,0,0,0,0,0,0,0,0,0,0,0,0,0,0,0,0,0,0,0,0,0,0,15691.635969951658,14815.794148168885,13892.401029579702,14518.67593192967,16025.27908335144,21817.783354464158,29365.970331903955,18822.97896504722,15982.523655981295,14849.586359366705,13609.082199156623,13987.294940059659,19333.782332216913,28714.72233622025,39291.41617600891,23426.832506414445,13543.088210054568,12550.23190850129,12770.836472271401,13533.82060159897,16388.720827234436,23369.14466430702,25512.032368518063,21206.260487222196,63.412802080028854,58.54878990836003,50.87089191717827,55.774166522171754,68.56846367756005,125.31914957339187,242.85176252846216,93.17095025347975,64.83576034651419,58.338926842541646,49.294508776590035,51.981009697901726,98.68307069425956,221.84876804479336,470.644670763295,148.39282156421385,47.49096329006126,41.07660640191902,41.36464172156292,45.78680249985741,67.13847817117295,144.83075742082698,174.25713283343583,117.95505439994713,0,0,0,0,0,0,17,0,0,0,0,0,0,3,16,0,0,0,0,0,0,0,0,0,0.0,emg_gestures,54.0,repeats_short,2018-05-11 14:05:34.118,0.0,42.61506815596648,0.0
43.82059991103032,7.619142210111265,7.118822532551406,6.721467517417205,7.018601402170105,7.475449713169539,9.676462493968511,13.534089912675737,9.408960050476642,7.384339103317013,6.859327367762484,6.550088047312847,6.650971652066295,8.471006107931354,11.866188662253403,16.349586719589013,9.855927946026936,6.079663582167018,5.850072755553538,5.958554127001742,6.246451025241557,7.483549448654592,11.029840865811826,11.452782050380495,9.724789610113424,6.023407762783601,5.605181498053044,5.353435353303481,5.544634544909729,5.989776247861811,7.672431704338427,10.60987409446302,7.420090772592797,6.036166015257987,5.50901230101901,5.207603391428466,5.328972326073469,6.910405715936485,9.391385463469028,12.511576242701008,7.825034197065065,4.9068751663955945,4.7156787595610945,4.839719888491025,5.094618244714972,6.055148842716011,8.46639368820458,9.250719777905827,7.86575458185075,5.042898991330674,5.359768583329213,6.582373803276747,4.1166215575860114,1.8978197160211705,4.856181162111769,19.35304015683431,17.071682979470364,11.028846632969591,7.4539937949659265,6.73758688835011,6.4342056321692285,14.025052896404798,18.972442347479724,25.041287106407424,16.01947183962097,9.385496313435997,8.085173369178104,6.819945941345777,8.278809677631438,9.851222827043248,19.16447473694086,3.9506899271204343,5.042742245903021,0,0,0,0,0,0,6,2,0,0,0,0,0,2,11,1,0,0,0,0,0,1,1,0,0,0,0,0,0,0,0,0,0,0,0,0,0,0,0,0,0,0,0,0,0,0,0,0,15058.519406959003,14012.95374513261,13383.588383258702,13861.586362274324,14974.440619654528,19181.07926084607,26524.68523615755,18550.226931481993,15090.415038144967,13772.530752547525,13019.008478571166,13322.430815183672,17276.014289841212,23478.46365867257,31278.94060675252,19562.585492662663,12267.187915988987,11789.196898902737,12099.299721227564,12736.545611787431,15137.872106790028,21165.98422051145,23126.79944476457,19664.386454626874,58.05127243392961,50.677610881335276,45.17811369124907,49.260424683686836,55.8793100522556,93.62163652921726,183.16467019386226,88.52822796047855,54.52574222976824,47.050086039456815,42.90337605976357,44.234550938550235,71.75157960522401,140.80408473749162,267.3016269444884,97.1366425656514,36.962001092522684,34.22315849508639,35.50376051631412,39.01664852578853,56.002472206624994,121.65641413061009,131.16184259469733,94.56814791312087,0,0,0,0,0,0,2,0,0,0,0,0,0,0,1,0,0,0,0,0,0,0,0,0,0.0,emg_gestures,54.0,repeats_short,2018-05-11 14:05:34.118,0.0,42.85901382988619,0.0
44.064545584950025,7.533488655338407,7.059230553336093,6.778100195805753,7.01842205816373,7.293809039234799,8.667632083097478,13.364759119748735,9.552744058184171,7.122872499101956,6.725945854987744,6.506916378732347,6.609693545101218,8.207869018202848,11.495980200741618,15.344207661307083,9.60232870152436,6.1217821642581685,5.961815121759991,5.932405016539043,6.243723595635563,7.585250192828932,11.97585401344933,11.10498123304989,9.083297514110972,5.880496922656855,5.5398368195286665,5.402244602849387,5.521309408599981,5.742166086476434,6.882318863251503,10.65455904699644,7.477723738788807,5.7441342776024165,5.35732097100086,5.152491979282647,5.265729009083212,6.501173652083644,9.014960521641111,11.996314974638333,7.559371150731963,4.905222382768548,4.769604655349793,4.760203392053377,4.99735189325263,5.980680456954893,9.148460235717689,8.947537487195165,7.2957536626395,-0.5872751892624883,-0.9005263603894966,-2.047227538173348,-1.8307687013914524,1.0779356473494799,6.689029517778799,-0.9212145857182428,0.461198816272411,-4.810156124965694,-5.0116917121991085,-0.18348361358156495,-1.085274108848231,3.36773662349989,3.5825412880229006,8.993633124188147,-2.317290733536227,2.0583507158638064,2.010637850256943,2.2097733737891803,0.8748566608482049,1.20289350839297,-2.3968210318308145,-3.2805613651461947,-2.280866397428836,0,0,0,0,0,0,5,1,0,0,0,0,0,2,6,0,0,0,0,0,0,4,1,0,0,0,0,0,0,0,0,0,0,0,0,0,0,0,0,0,0,0,0,0,0,0,0,0,14701.242306642138,13849.592048821667,13505.611507123467,13803.273521499952,14355.415216191086,17205.797158128757,26636.3976174911,18694.30934697202,14360.33569400604,13393.302427502149,12881.22994820662,13164.32252270803,16252.934130209109,22537.40130410278,29990.78743659583,18898.42787682991,12263.05595692137,11924.011638374483,11900.508480133443,12493.379733131576,14951.701142387234,22871.150589294222,22368.84371798791,18239.38415659875,56.75183744792845,49.83214219405804,45.94224926629791,49.257294546962136,53.198512298723365,75.12608245774692,178.61228425769116,91.25089478531869,50.73371998506795,45.23688987140075,42.33888863974466,43.68631547975325,67.36718371671051,132.15192302873825,235.44220934793861,92.20361811574045,37.471917502837584,35.5402664483903,35.19020876409428,38.97947720330589,57.53097758945974,143.41931862344873,123.3166289599693,82.50001199151583,0,0,0,0,0,0,0,0,0,0,0,0,0,0,1,0,0,0,0,0,0,0,0,0,0.0,emg_gestures,54.0,repeats_short,2018-05-11 14:05:34.118,0.0,43.10295950380589,0.0
44.30849125886973,6.97787069258562,6.747801732805574,6.431434205406707,6.558649579704263,6.8890296947858545,8.301704253422612,12.183304643692335,8.528023225192195,6.645971095823237,6.43284961299267,6.152426850611677,6.180765952180601,7.561528993226092,9.977743102370635,13.302899549446579,9.12678814697421,5.756032563681548,5.492352604066951,5.4181200123701805,5.658178713217207,6.662456654186843,10.221547662928456,9.388721508466563,7.787534333106759,5.422377703331043,5.225158118791732,5.033126783327312,5.090645353449124,5.32115055356641,6.46079191635617,9.669647503045514,6.65176091308506,5.261125490915809,5.04566969882367,4.81072120412347,4.840225289370406,5.813396996083588,7.704578201073609,10.318533380749644,7.066314800835677,4.520595810185743,4.307607588395909,4.259146550010805,4.438859330727825,5.12108124285016,7.775443248452994,7.536722800881078,6.234605026219967,-8.27447930149116,-6.479680109189407,-7.59206769615448,-6.044359005249656,-5.309567994770033,-7.5569864267331806,-7.319797592222006,-13.416788308109554,-11.73820073603466,-7.759845808450863,-6.9911435193798415,-7.287631013428599,-11.312828358338777,-14.034022187770635,-14.454187075357785,-12.129410416218528,-9.313284840769562,-7.976973842728078,-7.470693722235245,-8.13521184213506,-6.983030427839328,-6.9108100454332835,-7.938499340377424,-13.575288051955782,0,0,0,0,0,0,3,0,0,0,0,0,0,0,3,1,0,0,0,0,0,3,0,0,0,0,0,0,0,0,0,0,0,0,0,0,0,0,0,0,0,0,0,0,0,0,0,0,13555.944258327609,13062.895296979332,12582.816958318279,12726.61338362281,13302.876383916024,16151.979790890426,24174.118757613785,16629.40228271265,13152.813727289524,12614.174247059176,12026.803010308675,12100.563223426016,14533.49249020897,19261.445502684022,25796.33345187411,17665.787002089193,11301.489525464356,10769.018970989771,10647.866375027013,11097.148326819562,12802.703107125399,19438.608121132485,18841.807002202695,15586.512565549916,48.690678807741556,45.532638755223736,41.363036748157526,43.01459448276766,47.45577267061286,68.91324262387589,148.43286926692693,72.7263453464006,44.168846261707564,41.38153223807392,37.85191014088657,38.201380946781136,57.17524234884466,99.55535731767264,176.96707598543534,83.29823085727026,33.13164643565983,30.165808628000494,29.355851991156243,32.01460989683884,44.38832163520318,104.47997893329182,88.14800180348954,60.64408989932777,0,0,0,0,0,0,1,0,0,0,0,0,0,0,0,0,0,0,0,0,0,0,0,0,0.0,emg_gestures,54.0,repeats_short,2018-05-11 14:05:34.118,0.0,43.346905177725596,0.0
44.55243693278943,7.749580067848565,7.583060453766346,7.387214252390828,7.5045091658538725,7.9972625746399535,9.457156439092776,12.136048209842793,9.05390028999675,7.284401351435086,7.483985625190876,7.134392979301509,7.0906627587419635,8.402683863728303,10.765599852705458,13.303259980881963,9.182936972076154,6.564150066438941,6.358576779836705,6.313831661204091,6.471348765216721,7.318587535344386,9.658128967157985,9.861143826329913,8.788172017714105,6.086752561804426,5.937161881014709,5.791335574273181,5.847866395790715,6.245788661164632,7.445214848722078,9.471881328420851,7.139916441338016,5.839255406023073,5.9118199886144875,5.628314274690612,5.605595178379958,6.602861555985146,8.258559190396308,10.394925676932537,7.262816389377986,5.179606149369334,4.987936169591719,4.985865924735034,5.114092116962042,5.733204033513686,7.530643941217035,7.945228881057477,6.927690715562976,-7.587017755385186,-7.488304846553434,-6.2703844871243355,-8.463719284065903,-8.078719896329476,-10.669328237506083,-22.49376627259106,-9.192910327818064,-1.449416653314592,-4.775082989442509,-6.425862435144493,-5.292327287465863,-7.814664023026535,-9.298881996902942,-7.654782924023032,-5.611025557721247,-0.5941570450765079,-1.1025260480072179,-0.4350180122167515,0.3514856725535287,1.330434037963939,10.793921747433128,15.455713388302904,3.417774194846359,0,0,0,0,0,1,6,0,0,0,0,0,0,2,2,0,0,0,0,0,0,1,0,0,0,0,0,0,0,0,0,0,0,0,0,0,0,0,0,0,0,0,0,0,0,0,0,0,15216.881404511065,14842.904702536773,14478.338935682952,14619.665989476787,15614.47165291158,18613.037121805195,23679.703321052126,17849.79110334504,14598.138515057683,14779.549971536218,14070.78568672653,14013.987945949895,16507.153889962865,20646.39797599077,25987.314192331345,18157.040973444964,12949.015373423335,12469.840423979298,12464.664811837585,12785.230292405106,14333.010083784215,18826.609853042588,19863.072202643692,17319.22678890744,60.05480975667038,57.49897256501538,54.56796967419438,56.31555317909813,63.95431933692043,89.43779235576999,147.2835835843288,81.97274263155822,53.06124066299647,56.00888255350052,50.896854662403726,50.275097836247106,70.59963547214522,115.89111246819029,176.95620542797923,84.307528114972,43.08758552304334,40.430305094640936,39.86251042644707,41.87680885544482,53.55752634267204,93.26669382993097,97.24030630582838,77.23189708975823,0,0,0,0,0,0,4,1,0,0,0,0,0,0,3,1,0,0,0,0,0,0,0,0,0.0,emg_gestures,54.0,repeats_short,2018-05-11 14:05:34.118,0.0,43.5908508516453,0.0
44.79638260670914,7.5908446639241145,7.509619410172072,7.259082880824872,7.3905623668125155,7.930250739508399,9.02750710906544,11.715769421541626,8.842509354456817,7.195681830277986,7.414726127587734,6.937642148662358,6.8387865220477275,7.9491450011909475,10.36425310651618,12.6369397085496,8.55513825313122,6.187689028226036,6.05431517408021,5.974176027897528,6.127003163378663,7.0817985077725565,9.633654956732821,9.772542184218715,8.829189837703375,5.949120956761276,5.875809368218785,5.675206690971796,5.7678124429314614,6.195397605605508,7.174572219667601,9.069095503085695,6.949255771002857,5.771062014938139,5.859671010154416,5.447088117303234,5.373115959028413,6.267734518654405,7.912177677688764,9.676302925554369,6.738431238600277,4.867055818083612,4.730018559249596,4.717530268690987,4.841285762254406,5.631872783095777,7.676200323427754,7.7412827246198965,6.846136629692095,0.8030970541353772,0.5334865282593935,0.2678418998273955,2.0513476122196757,2.7543485523042506,1.5158415160425154,2.8132762135857163,3.8682553128261112,4.933566434598076,3.528777713409667,1.3897378426241778,4.309205435257018,3.0325389690649764,4.186267773250424,-14.268306545404057,-2.340762499729718,4.144802511627507,2.738802408452826,4.69477830426251,3.6855677639822364,2.5367188227121016,-3.682275333950443,-7.943845498996065,0.3659865675115572,0,0,0,0,0,1,6,0,0,0,0,0,0,2,2,0,0,0,0,0,0,0,0,0,0,0,0,0,0,0,0,0,0,0,0,0,0,0,0,0,0,0,0,0,0,0,0,0,14872.802391903191,14689.52342054696,14188.01672742949,14419.531107328654,15488.49401401377,17936.430549169003,22672.738757714236,17373.139427507143,14427.655037345348,14649.17752538604,13617.720293258084,13432.789897571034,15669.336296636013,19780.44419422191,24190.757313885922,16846.078096500692,12167.63954520903,11825.04639812399,11793.825671727467,12103.214405636016,14079.681957739444,19190.500808569384,19353.206811549742,17115.34157423024,57.62057851389751,56.394188899234216,52.69418372507277,54.62041179093158,62.88881335294744,81.49067399513653,137.25626382620783,78.18886843128271,51.77777639453455,54.97779824320285,48.13077037020104,46.76886471659729,63.188035258565655,107.41130751130453,159.66009846401366,73.1901040169308,38.28736386818231,36.65463350348578,35.69053370568017,37.539830910283655,50.151134725249236,92.80439584086886,95.49880637782965,77.95344477238038,0,0,0,0,0,0,3,1,0,0,0,0,0,0,3,1,0,0,0,0,0,0,0,0,0.0,emg_gestures,54.0,repeats_short,2018-05-11 14:05:34.118,0.0,43.834796525565004,0.0
45.04032828062884,6.427565131501211,6.324676354852947,6.029734455938157,6.196621856771772,6.626289306335736,7.6460806777677215,11.00626224470742,7.184684159530012,6.067393192448395,6.169462780168166,5.727183765919069,5.680091517130458,6.449952881681377,8.257454021765215,10.414505786364442,7.418726030358754,4.794071136961102,4.654592967271355,4.628257843259693,4.772738404985502,5.633972115666965,8.799779524444409,8.516488538848568,7.387120377020069,4.994145261106826,4.932433905061218,4.719197239950006,4.86108814916778,5.177564133767326,6.101735653039856,8.459414774405724,5.6132502814926255,4.8706560019635585,4.871345337003914,4.494120136352867,4.496601567068404,5.137003236078951,6.453910264436566,8.070595611049265,5.95816069509222,3.8189010712236975,3.732459112082042,3.7071906238561425,3.8346632554180613,4.493015993965881,6.7903356347624735,6.6732214743390275,5.801829032701068,14.697933009559176,13.928875878605627,12.948684889894736,13.991597641032229,11.442242387885308,6.6760850290636595,10.024991498933582,16.37977189432714,13.46792109714597,14.025812689371632,13.47685734877097,11.319335048866916,5.555613753811493,3.6155416643414,0.15392017846081174,16.31122922150133,7.979755502201955,7.902478020711348,6.276334569016992,6.13503462934557,7.004531459137314,3.65710675488835,6.249656525315654,12.588652963250862,0,0,0,0,0,0,6,0,0,0,0,0,0,1,1,0,0,0,0,0,0,0,0,0,0,0,0,0,0,0,0,0,0,0,0,0,0,0,0,0,0,0,0,0,0,0,0,0,12485.363152767066,12331.084762653045,11797.993099875015,12152.72037291945,12943.910334418317,15254.339132599638,21148.536936014312,14033.125703731563,12176.640004908895,12178.363342509787,11235.300340882168,11241.50391767101,12842.508090197378,16134.775661091415,20176.489027623164,14895.40173773055,9547.252678059243,9331.147780205105,9267.976559640356,9586.658138545154,11232.539984914703,16975.839086906184,16683.053685847568,14504.57258175267,41.30490224955827,39.989215005962,36.34870056275496,38.39244896829415,43.90333797219212,58.46252605918866,121.13239026275421,51.61320941994488,36.8078988528829,38.05571233379096,32.79137803204326,32.25439610146818,41.58612006893376,68.14062981035718,108.42751751271463,55.02912943255257,22.97757860011738,21.65762539852578,21.41088638859624,22.769114404168114,31.72612336183927,77.42327604634806,72.5292493920052,54.56775541999147,0,0,0,0,0,0,0,0,0,0,0,0,0,0,0,0,0,0,0,0,0,0,0,0,0.0,emg_gestures,54.0,repeats_short,2018-05-11 14:05:34.118,0.0,44.07874219948471,0.0
45.284273954548546,6.509234581449046,6.132571716500031,5.924218833365985,6.168406715946096,6.405961002179823,7.268911169958058,11.3544379398565,7.420462222421792,5.939740815161857,6.073021811109885,5.662527238890907,5.695807436203081,6.634639393311715,9.133040102533942,10.91677892098505,7.722586232630694,4.834732667029397,4.691172254700593,4.671998778572642,4.830260806029215,5.569815298809004,8.64790496802301,8.123424970414156,6.862423008290616,4.993247800392247,4.753540617726574,4.5948113252303395,4.8022332949246875,5.006577038684327,5.806645165401102,8.810211021828305,5.7794708923205995,4.69858878140379,4.740162341948216,4.403494662569557,4.481396728496571,5.271418676797264,7.0877656886073295,8.441901857916708,6.110454019275284,3.853950178788348,3.7613925992626087,3.722208680162287,3.863797683665912,4.432544697458048,6.774678950621147,6.545329360980303,5.48201675067357,6.440964627156896,6.0188083622537025,5.463351019680616,6.65647704849569,5.88329984082295,10.541716955313456,13.13463536427616,7.315255014717858,3.0758850714547865,3.0468213403791164,4.618716165476304,3.0617013512746354,5.922884884868644,9.996067799434064,28.763389800426435,10.150025728232515,3.16171290434494,3.6687841105993364,2.0440418524476094,2.417773134755893,2.202396151415434,8.625390136970898,17.058816305106625,6.582531033356359,0,0,0,0,0,0,3,0,0,0,0,0,0,1,3,0,0,0,0,0,0,0,0,0,0,0,0,0,0,0,0,0,0,0,0,0,0,0,0,0,0,0,0,0,0,0,0,0,12483.119500980618,11883.851544316436,11487.028313075849,12005.58323731172,12516.442596710818,14516.612913502755,22025.527554570763,14448.677230801499,11746.471953509474,11850.40585487054,11008.736656423891,11203.491821241427,13178.54669199316,17719.414221518324,21104.75464479177,15276.135048188211,9634.87544697087,9403.481498156521,9305.521700405718,9659.494209164779,11081.361743645119,16936.697376552867,16363.323402450758,13705.041876683925,42.36928353746203,37.60822361880226,35.09588109088793,38.04801293707229,41.03512162239661,52.83705363454152,128.92295626889506,55.0632550234647,35.280297873518336,36.88156844080814,32.06370168842276,32.44149076228997,44.018385146663206,83.41101932893761,119.164819939658,59.637909601400935,23.373013431345242,22.006418382883556,21.826826761673555,23.33032458114389,31.02120560984435,74.78416417708571,65.98529574525365,47.08404772455477,0,0,0,0,0,0,0,0,0,0,0,0,0,0,0,0,0,0,0,0,0,0,0,0,0.0,emg_gestures,54.0,repeats_short,2018-05-11 14:05:34.118,0.0,44.32268787340441,0.0
45.52821962846825,6.784095660138278,6.5854911345172376,6.393145184823125,6.461248890969643,6.655949617530146,7.302395691789961,12.280522482122171,7.632706322569938,6.2266476148939445,6.617987504068759,6.005483809838178,6.002758972038629,6.926497802676169,9.57419326861662,11.505672612440808,8.06167006139887,4.927369064085891,4.717865493945979,4.821434138275858,5.047470626349954,6.10669739988421,9.711372688329739,9.094195106768279,7.400562391389359,5.282466913533,5.096300830841877,4.9700521028329625,5.022950385869158,5.190402696271813,5.8443685054265675,9.379767760547713,6.041752807365499,4.890191992148821,5.12889195035623,4.690202335151087,4.7261767552356435,5.522407286359407,7.458412449134755,8.865548524394976,6.36339309661699,3.910052510425936,3.711906428449297,3.812843844346369,3.9935034745422717,4.753891189647876,7.551234119096989,7.167970238762391,5.768908932789206,-12.032490786569449,-10.82550191874451,-11.958345097576341,-9.25293696487686,-11.89431441598367,-5.861097996923657,-3.4336780074369173,-10.844532482047665,-14.786593355891887,-13.134102296333642,-11.351317122621033,-9.788585497203359,-8.302542927681998,-5.10611547985598,-7.3427752640839685,-17.65110175451457,-12.770626804534096,-11.43074087097732,-10.783378448058055,-10.398918160512036,-12.276992237593053,-14.512934653825328,-18.709394229053213,-19.749515941002034,0,0,0,0,0,0,6,0,0,0,0,0,0,0,5,0,0,0,0,0,0,0,0,0,0,0,0,0,0,0,0,0,0,0,0,0,0,0,0,0,0,0,0,0,0,0,0,0,13206.1672838325,12740.752077104693,12425.130257082406,12557.375964672894,12976.006740679533,14610.921263566419,23449.419401369283,15104.382018413746,12225.47998037205,12822.229875890574,11725.505837877718,11815.441888089108,13806.018215898517,18646.03112283689,22163.87131098744,15908.482741542475,9775.13127606484,9279.766071123242,9532.109610865922,9983.758686355679,11884.72797411969,18878.085297742473,17919.925596905978,14422.272331973014,46.02133339242121,43.36599357354375,40.87109790792047,41.74636934392267,44.30029762634847,53.32455707470932,150.78604819502416,58.25097274541564,38.76891848366176,43.796616105580945,36.064377790549045,36.03196144752182,47.97312811860161,91.6607622833204,132.37979075911886,64.99050514961958,24.27810479741271,22.257253960069793,23.244749807488766,25.474997898947567,37.289252808150174,94.30967538364447,82.70434921681345,54.76786342779423,0,0,0,0,0,0,0,0,0,0,0,0,0,0,0,0,0,0,0,0,0,0,0,0,0.0,emg_gestures,54.0,repeats_short,2018-05-11 14:05:34.118,0.0,44.566633547324116,0.0
45.772165302387954,6.577290097810172,6.5356069832945165,6.412085765520572,6.431717670978616,6.857907874155735,7.412143011408636,11.178268686443255,6.980055596531204,6.161738134997536,6.578493083844865,5.970375823646264,5.931023799410089,6.769000590467696,9.02606788741312,11.378167501535584,7.747636140282772,4.748297553471042,4.589470271376421,4.713945039598941,4.898767172091581,5.982086308538863,9.548548080398634,9.158133226349591,7.571217882984951,5.138090452223335,5.107394676289586,5.05638902984517,5.049688739312625,5.392261423483789,5.878004306611792,8.442474817055395,5.593704351371869,4.833206319627192,5.0912674657549175,4.708144956354939,4.67251525805612,5.309119117704583,6.925451586137214,8.740735847372637,6.132969802034083,3.7546422109385253,3.6104623362033963,3.7401978870264365,3.868138946783215,4.669726479918168,7.384693479696853,7.104779737578267,5.843746638092536,-10.515053394918457,-9.089802412513563,-8.144016612709247,-10.4819779623815,-9.53766000206098,-7.449081065640162,-26.435523138686662,-14.47584068334626,-10.350761967203024,-10.663275741346729,-7.671376727381362,-7.210313697674157,-10.298002309185552,-17.29462301731743,-30.088813754296424,-14.258140074175108,-8.80815970007109,-8.367666586939691,-7.767848775681505,-6.75825236934941,-6.225223162982163,-2.117290240148341,-17.23563320466291,-14.083441775881518,0,0,0,0,0,0,7,0,0,0,0,0,0,0,4,0,0,0,0,0,0,0,0,0,0,0,0,0,0,0,0,0,0,0,0,0,0,0,0,0,0,0,0,0,0,0,0,0,12845.226130558338,12768.486690723967,12640.972574612924,12624.221848281562,13480.653558709471,14695.01076652948,21106.187042638485,13984.260878429674,12083.01579906798,12728.168664387293,11770.362390887349,11681.288145140301,13272.797794261456,17313.628965343036,21851.839618431593,15332.424505085208,9386.605527346313,9026.15584050849,9350.494717566091,9670.347366958038,11674.316199795421,18461.733699242133,17761.949343945667,14609.366595231339,43.259797567009045,42.71043888286965,41.11125320862351,41.36371851784514,47.02677498083168,54.939577341367674,124.9527895685526,48.7207910612892,37.964230370818306,43.27014263589438,35.64291577698467,35.174632281517056,45.81841777084102,81.46962427399406,129.46138370989053,60.02578956837515,22.54588501343617,21.06127932300154,22.2191968417259,23.9959922425641,35.781898064127404,91.16022505313637,83.85823689538513,57.32195446055571,0,0,0,0,0,0,0,0,0,0,0,0,0,0,0,0,0,0,0,0,0,0,0,0,0.0,emg_gestures,54.0,repeats_short,2018-05-11 14:05:34.118,0.0,44.81057922124382,0.0
46.01611097630766,6.201954603357751,5.967992132619301,5.851923829565068,6.141192775997186,6.667726579440408,7.121459128641221,9.138294342280796,6.777726324468119,5.937653874010029,6.200884463235217,5.6082711855608345,5.6072348274803945,6.380211857969307,8.098177891707675,9.976165363352528,7.0532383110953525,4.651518476373812,4.589928551078676,4.56487709672497,4.677700419413946,5.400967274437949,8.382173929162372,8.077244406830935,6.75128157989689,4.7779907967118085,4.599386298954754,4.531139101780046,4.778043420098791,5.2099367038686815,5.648433549101317,7.229630617023524,5.497448851148244,4.563604128557675,4.723769735260862,4.350796061258728,4.347408248306696,4.976952858998833,6.260503311173409,7.839491653097904,5.446574894301875,3.6048752413179415,3.5888018652052582,3.600734756943921,3.7118588369833,4.353289093109692,6.5713839252998,6.327599647794656,5.222078738700879,17.81185795811698,17.552243371650576,17.665482492618793,17.203192830546378,19.407303819963705,16.458739932150838,19.83114963780816,19.313766618157,21.080941176169162,21.248491512348988,15.443658025444726,16.149662412879444,16.521818639349156,14.295520637923739,11.527496576604234,15.761833711793583,12.32488350863735,12.580936027994001,12.258980252823642,11.842627931738239,13.717131242439955,20.381641686241252,4.503373040219209,4.804308441994946,0,0,0,0,0,0,1,0,0,0,0,0,0,0,2,0,0,0,0,0,0,0,0,0,0,0,0,0,0,0,0,0,0,0,0,0,0,0,0,0,0,0,0,0,0,0,0,0,11944.976991779522,11498.465747386887,11327.847754450117,11945.108550246976,13024.841759671704,14121.083872753294,18074.07654255881,13743.622127870609,11409.010321394187,11809.424338152154,10876.99015314682,10868.52062076674,12442.382147497083,15651.258277933523,19598.72913274476,13616.437235754689,9012.188103294853,8972.004663013146,9001.836892359803,9279.64709245825,10883.22273277423,16428.4598132495,15818.999119486642,13055.196846752198,38.46411893472904,35.616164714364956,34.24427292019144,37.713842122304605,44.458481366436345,50.714680362286515,83.50606077118164,45.93746073918504,35.2557132928095,38.45048766984611,31.45216947515551,31.440755567635886,40.70611594696086,65.56918396302898,99.50271067252535,49.74601010829462,21.636512412804702,21.067217925740184,20.837918852009743,21.880856502000317,29.170436862620722,70.25994751997523,65.24145119115644,45.579759145124086,1,1,0,1,2,0,1,0,0,0,0,0,0,0,0,1,0,0,0,0,0,0,0,0,2.0,emg_gestures,54.0,repeats_short,2018-05-11 14:05:34.118,0.0,45.054524895163524,0.0
46.26005665022736,7.00466440449565,6.830049738763671,6.613890175896483,6.6532907683446565,6.969621205982862,7.212090605039742,9.643893585781038,7.1673234370372905,6.792100924512085,6.769288090721946,6.15253459988656,6.196820285856741,6.527641503876627,7.906268294208323,10.319868659449744,7.787517097230766,5.438105805372755,5.085051638987249,4.94257021262815,5.046141797583778,5.423633268885172,7.907723707926468,8.474618447055478,7.273773197841723,5.260561345510133,5.110712239988591,5.012888202163267,5.006263501604965,5.233235186588747,5.608100448349205,7.482998317078454,5.603529342060553,5.124154485357029,5.166680762206387,4.642862874151457,4.730588083214888,4.982243278942772,6.124949628691626,8.082282667638536,5.938156702484025,4.290713132420305,4.0297860314237495,3.8729850639006065,3.9672909611661833,4.320098104589835,6.210901809153696,6.6171457560979094,5.704788035229857,-6.109981726360225,5.5601659750945736,4.300954473221207,3.454453265174017,1.9637443637756142,0.11169719860687266,12.912115585440057,3.918822803223396,-2.347732100120659,4.050741889459093,3.435445586253948,3.40022131022703,2.1666191327285595,7.350083256084643,14.45139386056032,4.054310860869073,2.172047165144166,-1.254300955403254,-0.2994912163440624,-0.5236478556200268,-0.8117513109167263,-5.726389269680439,7.3359688065359165,7.622486261632302,0,0,0,0,0,0,0,0,0,0,0,0,0,0,2,2,0,0,0,0,0,0,0,0,0,0,0,0,0,0,0,0,0,0,0,0,0,0,0,0,0,0,0,0,0,0,0,0,13151.403363775335,12776.780599971478,12532.220505408168,12515.658754012413,13083.087966471867,14020.251120873014,18707.495792696136,14008.823355151384,12810.386213392572,12916.701905515969,11607.157185378643,11826.47020803722,12455.60819735693,15312.374071729064,20205.70666909634,14845.391756210061,10726.782831050763,10074.465078559373,9682.462659751516,9918.227402915458,10800.245261474589,15527.25452288424,16542.864390244773,14261.970088074642,49.0652461896813,46.64949012760804,43.74118803031575,44.264483066803706,48.57373734466774,52.0141621466638,93.00305151509392,51.369686077230135,46.12994736458697,45.82274432524025,37.85102522703968,38.39866779688396,42.61002878994709,62.50856536591853,106.49954987609526,60.645334697596354,29.572480221400188,25.857736875172307,24.428949480825725,25.463498095686898,29.41427523620926,62.523573217692295,71.81300855990763,52.90742875467438,1,1,0,1,2,0,3,0,0,0,0,0,0,0,0,1,0,0,0,0,0,0,0,0,2.0,emg_gestures,54.0,repeats_short,2018-05-11 14:05:34.118,3.0,45.29847056908323,0.0
46.504002324147066,14.561026742039378,27.11680943801556,38.89712441844134,21.683908687312258,14.731519959024851,12.912027997424838,13.467233492440611,10.652019779177667,19.917863865812766,16.41748651966652,19.5301577048528,16.476588292157206,12.237286813014354,12.146005131293956,13.092616893402978,10.920092489372976,13.704627044775028,10.848047333279567,11.498857380371783,15.38582951712973,9.521718713770415,10.09023150147976,10.521575940078964,10.003833120792118,9.574329108387367,14.813043776429886,19.81849649668181,12.325429043607686,9.375927568721574,8.526603717213554,9.810815759254472,7.563903194611917,11.319531950389223,10.111914705865257,11.345870557340287,9.817051562102813,8.052863414358814,8.408040375770664,9.659103564470405,7.936054438632881,8.639753316222954,7.02222983538802,7.416538917913631,7.914109237853088,6.465005313441715,7.493797174327686,7.822515540170669,7.367001308242916,-36.52130128148647,-85.44897138039063,-30.339788908750805,-8.864154224826553,-6.0897424633336925,-4.123535368411829,-10.360916357286355,-12.31949763644654,-14.945544136572867,-66.95170338483082,-17.622500790397684,-13.788102206361769,-4.438258986914644,-0.4870110491562105,0.6037188405899006,-3.1962391288331418,-3.396110037065391,-4.839645608029619,-4.37584621925993,-14.54436101855864,-7.732396482610466,-8.820311583911945,4.230354475088346,9.688661064965535,17,13,17,8,7,5,5,4,13,9,12,7,5,3,7,6,7,6,5,4,3,2,4,2,0,0,0,0,0,0,0,0,0,0,1,0,0,0,0,0,0,0,1,1,0,0,0,0,23935.822770968418,37032.60944107472,49546.24124170453,30813.572609019215,23439.818921803933,21316.509293033887,24527.03939813618,18909.757986529792,28298.829875973057,25279.786764663142,28364.676393350717,24542.628905257036,20132.158535897037,21020.10093942666,24147.75891117601,19840.136096582202,21599.383290557387,17555.574588470052,18541.34729478408,19785.27309463272,16162.513283604287,18734.492935819217,19556.288850426674,18417.50327060729,212.02162375619798,735.3203834909559,1512.9838603094763,470.17832207746187,217.00728293203264,166.7164595531145,181.36250459678172,113.4629637032962,396.7076143290082,269.52661326532086,381.42427601074434,271.4776852116665,149.74801294471465,147.52400148781555,171.41094308673203,119.24339562553726,187.80483191560322,117.67367847899804,132.2237055711448,236.72310890144465,90.65978641074294,101.79941474487458,110.68656757672574,100.06668297416128,14,38,74,20,5,2,2,2,34,16,39,11,3,0,0,0,28,5,5,10,0,0,0,0,2.0,emg_gestures,54.0,repeats_short,2018-05-11 14:05:34.118,2.0,45.54241624300293,2.0
46.74794799806677,19.08000940305919,32.37800916292608,43.464134899033034,23.154091618073988,16.13394733252978,14.270970223769204,14.284542930079407,12.486375732282113,24.9610935362923,24.092667646181514,24.42840692337354,21.22382942410653,13.718063920641068,13.308227112857173,13.251676495571052,12.221234216601902,17.111893742282497,13.480690372189537,14.605225255855983,17.713886285397265,11.326339952142316,11.353774032878116,11.304626296969051,11.12589238018624,13.897729911666696,20.8914974711681,27.462689322849037,14.872623741676126,11.264680644604464,10.005195292160266,10.615551127596508,9.48289394424244,16.267944077781536,16.52284625658,17.19679392799483,14.973551719595308,9.872404037482308,9.618135255351717,9.84155472981644,9.187324099164845,11.98215698689705,9.641288588209687,10.626190061676613,10.967102291842172,8.322086688966907,8.58518158362172,8.520014478923965,8.415133366234286,-9.543152613003482,-9.048922239816449,61.41041157270136,-9.24738842698224,-5.1224149619587624,-11.263686509986805,-9.675477448446431,-7.851462907071752,11.013906163553585,15.744277120491056,8.028744264572115,-6.0113760462287935,-6.73607673553145,-9.709362707059562,-11.784907955121914,-7.845574251114694,-4.720538106998138,0.44627650715473166,-12.028753168112399,-12.563578634111408,-7.752798853182757,-7.357723765889076,-8.308986113315322,-6.582082460147122,32,28,37,14,10,8,8,5,28,24,21,19,8,5,6,5,19,11,9,7,3,2,4,2,0,0,0,0,0,0,0,0,2,0,1,0,0,0,0,0,0,0,1,1,0,0,0,0,34744.32477916674,52228.743677920254,68656.7233071226,37181.559354190314,28161.701611511162,25012.988230400664,26538.87781899127,23707.2348606061,40669.86019445384,41307.11564145,42991.98481998707,37433.87929898827,24681.010093705772,24045.33813837929,24603.8868245411,22968.310247912115,29955.392467242622,24103.221470524215,26565.475154191532,27417.75572960543,20805.216722417266,21462.9539590543,21300.036197309913,21037.833415585716,364.03955338849073,1048.3349037221242,1889.130947528239,536.1077716766171,260.3041122135965,203.66048304028408,204.0442633738329,155.90750285918818,623.0506803269657,580.4562151252618,596.7463716285279,450.45049812732634,188.18509049613533,177.10848376405912,175.6065453900221,149.35698882513753,292.81674198927954,181.72855165572614,213.31193223360287,313.7817339947674,128.2854786396226,128.90553640494278,127.79390164116867,123.78544587516112,45,89,107,20,5,2,1,2,72,58,55,14,3,0,0,0,36,9,5,10,0,0,0,0,2.0,emg_gestures,54.0,repeats_short,2018-05-11 14:05:34.118,2.0,45.78636191692264,2.0
46.991893671986475,14.93384736616385,19.89365484700017,23.596783462946252,11.170152372517947,9.753512834511536,9.180181077982182,9.947088790429497,9.82938456584311,17.474148951330637,19.496455438222583,17.423818749157114,16.206574327232545,9.051325897710212,9.014070981593436,9.477821884811028,9.719627839689219,12.401165724589074,10.185352855728693,11.107994010644214,10.741022117421126,8.255726912894497,8.671035204494093,9.029999082465878,8.963277470755257,10.754645043138266,12.878474930578296,16.389827743091136,8.356428868839986,7.411116335055497,6.883003920213919,7.575935250482999,7.625628384993839,11.762041484947716,12.801760879519959,12.598010893166533,11.768959147232838,6.944303535936819,6.9017878026425405,7.30025363457189,7.4904023264322515,8.923024625231465,7.690905382774043,8.290298016325005,7.931044982017037,6.29177731502564,6.668724828829031,7.0377706801886015,7.076916334741692,19.848683536364746,60.022066133889524,21.663015240598376,-12.762342207213663,-16.518856881386295,-20.354323972903238,-14.598392262625254,-4.2429584669418645,0.07148182472758258,34.48428285778059,-0.2730439139737211,0.16871541171755133,-12.486512856324087,-15.616993027094473,-12.607313858342945,-10.346806563971171,-17.14285671034299,-15.768803538772453,-8.716341595854555,3.2625775363369804,-4.442107361766402,-6.456590270657907,-9.679928740199657,-12.273317027525355,14,16,26,5,2,2,2,1,16,18,13,15,2,2,1,1,12,5,3,2,0,0,0,0,0,0,0,0,0,0,0,0,2,0,0,0,0,0,0,0,0,0,0,0,0,0,0,0,26886.612607845665,32196.18732644574,40974.56935772784,20891.072172099965,18527.790837638742,17207.509800534797,18939.838126207498,19064.0709624846,29405.103712369288,32004.402198799897,31495.027232916334,29422.397868082095,17360.75883984205,17254.46950660635,18250.634086429724,18726.00581608063,22307.561563078663,19227.263456935107,20725.74504081251,19827.612455042592,15729.4432875641,16671.81207207258,17594.426700471504,17692.29083685423,223.0197756136382,395.7552184231177,556.8036248864638,124.76297039982346,95.12515528710765,84.27291622062988,98.94374827822583,96.61668708928825,305.3108423377743,380.0925768648819,303.5803375586931,262.64705358417274,81.92494740979089,81.25181916244665,89.82618309694911,94.47053782374323,153.78486354182022,103.74022131614556,123.38482075140556,115.36876689578956,68.1570268575485,75.18625467740398,81.54010521212122,80.34013718277312,30,51,42,0,0,0,1,0,38,42,16,3,0,0,0,0,8,4,0,0,0,0,0,0,2.0,emg_gestures,54.0,repeats_short,2018-05-11 14:05:34.118,2.0,46.03030759084234,2.0
