,RMS_1,RMS_2,RMS_3,RMS_4,RMS_5,RMS_6,RMS_7,RMS_8,RMS_9,RMS_10,RMS_11,RMS_12,RMS_13,RMS_14,RMS_15,RMS_16,RMS_17,RMS_18,RMS_19,RMS_20,RMS_21,RMS_22,RMS_23,RMS_24,MAV_1,MAV_2,MAV_3,MAV_4,MAV_5,MAV_6,MAV_7,MAV_8,MAV_9,MAV_10,MAV_11,MAV_12,MAV_13,MAV_14,MAV_15,MAV_16,MAV_17,MAV_18,MAV_19,MAV_20,MAV_21,MAV_22,MAV_23,MAV_24,WL_1,WL_2,WL_3,WL_4,WL_5,WL_6,WL_7,WL_8,WL_9,WL_10,WL_11,WL_12,WL_13,WL_14,WL_15,WL_16,WL_17,WL_18,WL_19,WL_20,WL_21,WL_22,WL_23,WL_24,ZC_1,ZC_2,ZC_3,ZC_4,ZC_5,ZC_6,ZC_7,ZC_8,ZC_9,ZC_10,ZC_11,ZC_12,ZC_13,ZC_14,ZC_15,ZC_16,ZC_17,ZC_18,ZC_19,ZC_20,ZC_21,ZC_22,ZC_23,ZC_24,SSC_1,SSC_2,SSC_3,SSC_4,SSC_5,SSC_6,SSC_7,SSC_8,SSC_9,SSC_10,SSC_11,SSC_12,SSC_13,SSC_14,SSC_15,SSC_16,SSC_17,SSC_18,SSC_19,SSC_20,SSC_21,SSC_22,SSC_23,SSC_24,IAV_1,IAV_2,IAV_3,IAV_4,IAV_5,IAV_6,IAV_7,IAV_8,IAV_9,IAV_10,IAV_11,IAV_12,IAV_13,IAV_14,IAV_15,IAV_16,IAV_17,IAV_18,IAV_19,IAV_20,IAV_21,IAV_22,IAV_23,IAV_24,VAR_1,VAR_2,VAR_3,VAR_4,VAR_5,VAR_6,VAR_7,VAR_8,VAR_9,VAR_10,VAR_11,VAR_12,VAR_13,VAR_14,VAR_15,VAR_16,VAR_17,VAR_18,VAR_19,VAR_20,VAR_21,VAR_22,VAR_23,VAR_24,WAMP_1,WAMP_2,WAMP_3,WAMP_4,WAMP_5,WAMP_6,WAMP_7,WAMP_8,WAMP_9,WAMP_10,WAMP_11,WAMP_12,WAMP_13,WAMP_14,WAMP_15,WAMP_16,WAMP_17,WAMP_18,WAMP_19,WAMP_20,WAMP_21,WAMP_22,WAMP_23,WAMP_24,TRAJ_1,type,subject,trajectory,date_time,TRAJ_GT_NO_FILTER,VIDEO_STAMP,TRAJ_GT
43.08876288927121,8.445707552820977,8.838656886049586,7.537061497983931,7.794328660027709,8.36168301217648,13.216952240476537,19.909253121660438,11.045997038186174,8.835419534998609,7.54376719757498,7.185080926721353,7.2355604908561615,9.201946760788768,14.79747137527482,23.832343565959373,17.35840579631663,7.192755928501661,6.268319397272231,6.314147438505802,6.754939836760024,8.463601738127775,13.73887569405195,14.597056382617176,12.600866285946692,6.499153963416866,6.820758156528482,5.94119712363458,6.1392250738235115,6.580962203784202,10.08952083624082,15.769066527705563,8.51041827350932,6.930403817014079,5.882141054420619,5.6155131820139,5.652560262522954,7.282043853907738,11.678914060736362,17.768784026601974,12.339205132774252,5.790007538271324,4.989833692758882,4.995302644926669,5.257697903040547,6.454520112749292,10.444534092760007,10.966504567382085,9.632822534709314,-5.0880528539163326,-5.536607696876956,-2.694255201985376,-2.2162893622391735,-2.309472480238693,-3.074170883528648,1.0790817537805246,-16.803122672522186,-7.4192654128049975,-5.399349584501876,-2.5290510563692585,-2.1305115328304502,-0.8381410539697018,-8.711986598818424,-18.989498912489914,-16.606317820596768,0.11467503788343159,0.3635322818267763,-0.029333055091528948,-1.2766754928141673,-1.368114832275138,-16.05738695118281,-5.187849501875085,1.0390983968553726,1,3,0,0,0,5,30,3,0,0,0,0,0,9,22,11,0,0,0,0,0,7,7,8,0,0,0,0,0,0,0,0,0,0,0,0,0,0,0,0,0,0,0,0,0,0,0,0,16247.884908542164,17051.895391321206,14852.992809086449,15348.06268455878,16452.405509460506,25223.802090602054,39422.66631926391,21276.0456837733,17326.009542535197,14705.352636051548,14038.782955034749,14131.400656307385,18205.109634769346,29197.285151840904,44421.96006650494,30848.01283193563,14475.018845678309,12474.584231897205,12488.256612316673,13144.244757601366,16136.300281873231,26111.335231900015,27416.26141845521,24082.056336773287,71.3232972492052,78.11448555145188,56.798044723322384,60.73953019341098,69.90618419792601,174.68227218889004,396.3578165209305,121.99497886048742,78.05127250642153,56.89541235715903,51.61323705675507,52.338805296491806,84.64893054237864,218.92298576158228,567.89041894523,301.29136923476784,51.72005658455145,39.2775082427528,39.85535124223909,45.613115225693385,71.61432804200402,188.73233227957408,213.04604812685525,158.76284172774996,0,0,0,0,0,0,17,0,0,0,0,0,0,0,12,4,0,0,0,0,0,0,0,0,0.0,emg_gestures,54.0,repeats_short,2018-05-11 14:05:34.118,3.0,42.127176808127075,0.0
43.33270856319091,8.455221539797577,8.537221805062417,7.64518888633929,7.933364389310056,8.819514292867163,13.377174188916987,18.74408063115408,10.181653928176283,8.746927828773716,8.008108663968915,7.3998648518764965,7.538847786599453,10.19015409058502,15.634522775191313,22.977264995862047,12.975576131679865,7.283927291133729,6.684931423676079,6.633710877335756,6.967174308113008,8.577468895326188,13.6518215165013,13.986144291464903,11.193909555745469,6.63790413605868,6.621610706761584,6.122203353741579,6.35562703345807,6.95906010344693,10.202307917596096,14.550092234203124,7.997717356231449,6.9555103159078975,6.365979034244561,5.881909546646931,5.989691707072004,7.984214125849263,12.390599814771132,17.34342649808237,10.221247538264791,5.8097090539699785,5.297875385052384,5.295130412372511,5.537911696602973,6.703042389568857,10.524218958543976,10.715346817379112,8.694130557717221,2.4739161745010065,-2.489854573819649,-2.6670910502006198,-3.739427892653829,-0.4053075264670323,10.534321704788471,5.417338638244065,2.798062466658939,4.799188343566161,0.8277870505363563,-2.7265504795601228,-0.11159783080997165,3.7080486760887545,4.624908602605517,1.9633403251949524,-5.777176874976977,-4.798846358371304,-0.609680609124406,2.4771908778440377,0.5409290350372551,0.8079630661471029,-8.221012146045474,-4.415543775589242,-10.077065510936691,0,1,0,0,1,5,22,1,0,0,0,0,1,6,26,6,0,0,0,0,1,9,3,4,0,0,0,0,0,0,0,0,0,0,0,0,0,0,0,0,0,0,0,0,0,0,0,0,16594.7603401467,16554.02676690396,15305.508384353947,15889.067583645176,17397.650258617326,25505.76979399024,36375.23058550781,19994.293390578623,17388.775789769745,15914.947585611404,14704.773866617326,14974.22926768001,19960.535314623157,30976.49953692783,43358.56624520592,25553.11884566198,14524.272634924946,13244.68846263096,13237.826030931277,13844.779241507433,16757.605973922142,26310.54739635994,26788.367043447783,21735.326394293053,71.49075694684781,72.88266759488559,58.448736583116734,62.93793838076247,77.78165042477879,178.9059270306132,351.22242931758177,103.65892993864416,76.50742498212132,64.12974587166865,54.75741806730036,56.831951329224694,103.82353014498764,244.38985579653354,527.9048671106881,168.35735089280755,53.05329239301679,44.68690188398574,44.0047670957369,48.53871234123967,73.5690636630964,186.37005707381402,195.61183409818784,125.30356453369298,0,0,0,0,0,0,15,0,0,0,0,0,0,3,17,0,0,0,0,0,0,0,0,0,0.0,emg_gestures,54.0,repeats_short,2018-05-11 14:05:34.118,0.0,42.37112248204678,0.0
43.57665423711062,7.963245845136346,7.651808666885778,7.132415607882467,7.4682616266472674,8.280753497861097,11.194791306952556,15.583804725248925,9.652557908442455,8.05211892687571,7.638001291471133,7.021029504815164,7.2098266242847195,9.934050660672812,14.894756324475741,21.69463442802691,12.182023374909429,6.891584793885649,6.409180062532438,6.431654282118232,6.766710025664999,8.193963675454508,12.034629858407593,13.200906552942262,10.86119603514604,6.276654387980663,5.926317659267554,5.556960411831881,5.807470372771868,6.410111633340575,8.727113341785664,11.746388132761583,7.529191586018888,6.393009462392518,5.939834543746682,5.443632879662649,5.594917976023863,7.733512932886765,11.4858889344881,15.716566470403565,9.370733002565778,5.417235284021827,5.020092763400516,5.10833458890856,5.413528240639589,6.555488330893774,9.347657865722807,10.204812947407225,8.482504194888879,12.627278365692682,13.302420586364955,14.315148610292294,16.235282707511647,13.569814652243721,10.30410347057717,23.628695894789875,19.17051331296612,13.50586360560933,13.833983604269111,12.633504277265725,13.285760324265294,11.588285637104917,17.910265623454308,26.841563676167805,21.543638497153147,4.851421672244823,5.890672306804696,7.054636105067763,9.864281962926311,13.238983457950484,33.85814872599877,21.527360619893773,8.498943378212063,0,0,0,0,1,2,7,2,0,0,0,0,1,5,24,6,0,0,0,0,0,5,3,3,0,0,0,0,0,0,0,0,0,0,0,0,0,0,0,0,0,0,0,0,0,0,0,0,15691.635969951658,14815.794148168885,13892.401029579702,14518.67593192967,16025.27908335144,21817.783354464158,29365.970331903955,18822.97896504722,15982.523655981295,14849.586359366705,13609.082199156623,13987.294940059659,19333.782332216913,28714.72233622025,39291.41617600891,23426.832506414445,13543.088210054568,12550.23190850129,12770.836472271401,13533.82060159897,16388.720827234436,23369.14466430702,25512.032368518063,21206.260487222196,63.412802080028854,58.54878990836003,50.87089191717827,55.774166522171754,68.56846367756005,125.31914957339187,242.85176252846216,93.17095025347975,64.83576034651419,58.338926842541646,49.294508776590035,51.981009697901726,98.68307069425956,221.84876804479336,470.644670763295,148.39282156421385,47.49096329006126,41.07660640191902,41.36464172156292,45.78680249985741,67.13847817117295,144.83075742082698,174.25713283343583,117.95505439994713,0,0,0,0,0,0,17,0,0,0,0,0,0,3,16,0,0,0,0,0,0,0,0,0,0.0,emg_gestures,54.0,repeats_short,2018-05-11 14:05:34.118,0.0,42.61506815596648,0.0
43.82059991103032,7.619142210111265,7.118822532551406,6.721467517417205,7.018601402170105,7.475449713169539,9.676462493968511,13.534089912675737,9.408960050476642,7.384339103317013,6.859327367762484,6.550088047312847,6.650971652066295,8.471006107931354,11.866188662253403,16.349586719589013,9.855927946026936,6.079663582167018,5.850072755553538,5.958554127001742,6.246451025241557,7.483549448654592,11.029840865811826,11.452782050380495,9.724789610113424,6.023407762783601,5.605181498053044,5.353435353303481,5.544634544909729,5.989776247861811,7.672431704338427,10.60987409446302,7.420090772592797,6.036166015257987,5.50901230101901,5.207603391428466,5.328972326073469,6.910405715936485,9.391385463469028,12.511576242701008,7.825034197065065,4.9068751663955945,4.7156787595610945,4.839719888491025,5.094618244714972,6.055148842716011,8.46639368820458,9.250719777905827,7.86575458185075,5.042898991330674,5.359768583329213,6.582373803276747,4.1166215575860114,1.8978197160211705,4.856181162111769,19.35304015683431,17.071682979470364,11.028846632969591,7.4539937949659265,6.73758688835011,6.4342056321692285,14.025052896404798,18.972442347479724,25.041287106407424,16.01947183962097,9.385496313435997,8.085173369178104,6.819945941345777,8.278809677631438,9.851222827043248,19.16447473694086,3.9506899271204343,5.042742245903021,0,0,0,0,0,0,6,2,0,0,0,0,0,2,11,1,0,0,0,0,0,1,1,0,0,0,0,0,0,0,0,0,0,0,0,0,0,0,0,0,0,0,0,0,0,0,0,0,15058.519406959003,14012.95374513261,13383.588383258702,13861.586362274324,14974.440619654528,19181.07926084607,26524.68523615755,18550.226931481993,15090.415038144967,13772.530752547525,13019.008478571166,13322.430815183672,17276.014289841212,23478.46365867257,31278.94060675252,19562.585492662663,12267.187915988987,11789.196898902737,12099.299721227564,12736.545611787431,15137.872106790028,21165.98422051145,23126.79944476457,19664.386454626874,58.05127243392961,50.677610881335276,45.17811369124907,49.260424683686836,55.8793100522556,93.62163652921726,183.16467019386226,88.52822796047855,54.52574222976824,47.050086039456815,42.90337605976357,44.234550938550235,71.75157960522401,140.80408473749162,267.3016269444884,97.1366425656514,36.962001092522684,34.22315849508639,35.50376051631412,39.01664852578853,56.002472206624994,121.65641413061009,131.16184259469733,94.56814791312087,0,0,0,0,0,0,2,0,0,0,0,0,0,0,1,0,0,0,0,0,0,0,0,0,0.0,emg_gestures,54.0,repeats_short,2018-05-11 14:05:34.118,0.0,42.85901382988619,0.0
44.064545584950025,7.533488655338407,7.059230553336093,6.778100195805753,7.01842205816373,7.293809039234799,8.667632083097478,13.364759119748735,9.552744058184171,7.122872499101956,6.725945854987744,6.506916378732347,6.609693545101218,8.207869018202848,11.495980200741618,15.344207661307083,9.60232870152436,6.1217821642581685,5.961815121759991,5.932405016539043,6.243723595635563,7.585250192828932,11.97585401344933,11.10498123304989,9.083297514110972,5.880496922656855,5.5398368195286665,5.402244602849387,5.521309408599981,5.742166086476434,6.882318863251503,10.65455904699644,7.477723738788807,5.7441342776024165,5.35732097100086,5.152491979282647,5.265729009083212,6.501173652083644,9.014960521641111,11.996314974638333,7.559371150731963,4.905222382768548,4.769604655349793,4.760203392053377,4.99735189325263,5.980680456954893,9.148460235717689,8.947537487195165,7.2957536626395,-0.5872751892624883,-0.9005263603894966,-2.047227538173348,-1.8307687013914524,1.0779356473494799,6.689029517778799,-0.9212145857182428,0.461198816272411,-4.810156124965694,-5.0116917121991085,-0.18348361358156495,-1.085274108848231,3.36773662349989,3.5825412880229006,8.993633124188147,-2.317290733536227,2.0583507158638064,2.010637850256943,2.2097733737891803,0.8748566608482049,1.20289350839297,-2.3968210318308145,-3.2805613651461947,-2.280866397428836,0,0,0,0,0,0,5,1,0,0,0,0,0,2,6,0,0,0,0,0,0,4,1,0,0,0,0,0,0,0,0,0,0,0,0,0,0,0,0,0,0,0,0,0,0,0,0,0,14701.242306642138,13849.592048821667,13505.611507123467,13803.273521499952,14355.415216191086,17205.797158128757,26636.3976174911,18694.30934697202,14360.33569400604,13393.302427502149,12881.22994820662,13164.32252270803,16252.934130209109,22537.40130410278,29990.78743659583,18898.42787682991,12263.05595692137,11924.011638374483,11900.508480133443,12493.379733131576,14951.701142387234,22871.150589294222,22368.84371798791,18239.38415659875,56.75183744792845,49.83214219405804,45.94224926629791,49.257294546962136,53.198512298723365,75.12608245774692,178.61228425769116,91.25089478531869,50.73371998506795,45.23688987140075,42.33888863974466,43.68631547975325,67.36718371671051,132.15192302873825,235.44220934793861,92.20361811574045,37.471917502837584,35.5402664483903,35.19020876409428,38.97947720330589,57.53097758945974,143.41931862344873,123.3166289599693,82.50001199151583,0,0,0,0,0,0,0,0,0,0,0,0,0,0,1,0,0,0,0,0,0,0,0,0,0.0,emg_gestures,54.0,repeats_short,2018-05-11 14:05:34.118,0.0,43.10295950380589,0.0
44.30849125886973,6.97787069258562,6.747801732805574,6.431434205406707,6.558649579704263,6.8890296947858545,8.301704253422612,12.183304643692335,8.528023225192195,6.645971095823237,6.43284961299267,6.152426850611677,6.180765952180601,7.561528993226092,9.977743102370635,13.302899549446579,9.12678814697421,5.756032563681548,5.492352604066951,5.4181200123701805,5.658178713217207,6.662456654186843,10.221547662928456,9.388721508466563,7.787534333106759,5.422377703331043,5.225158118791732,5.033126783327312,5.090645353449124,5.32115055356641,6.46079191635617,9.669647503045514,6.65176091308506,5.261125490915809,5.04566969882367,4.81072120412347,4.840225289370406,5.813396996083588,7.704578201073609,10.318533380749644,7.066314800835677,4.520595810185743,4.307607588395909,4.259146550010805,4.438859330727825,5.12108124285016,7.775443248452994,7.536722800881078,6.234605026219967,-8.27447930149116,-6.479680109189407,-7.59206769615448,-6.044359005249656,-5.309567994770033,-7.5569864267331806,-7.319797592222006,-13.416788308109554,-11.73820073603466,-7.759845808450863,-6.9911435193798415,-7.287631013428599,-11.312828358338777,-14.034022187770635,-14.454187075357785,-12.129410416218528,-9.313284840769562,-7.976973842728078,-7.470693722235245,-8.13521184213506,-6.983030427839328,-6.9108100454332835,-7.938499340377424,-13.575288051955782,0,0,0,0,0,0,3,0,0,0,0,0,0,0,3,1,0,0,0,0,0,3,0,0,0,0,0,0,0,0,0,0,0,0,0,0,0,0,0,0,0,0,0,0,0,0,0,0,13555.944258327609,13062.895296979332,12582.816958318279,12726.61338362281,13302.876383916024,16151.979790890426,24174.118757613785,16629.40228271265,13152.813727289524,12614.174247059176,12026.803010308675,12100.563223426016,14533.49249020897,19261.445502684022,25796.33345187411,17665.787002089193,11301.489525464356,10769.018970989771,10647.866375027013,11097.148326819562,12802.703107125399,19438.608121132485,18841.807002202695,15586.512565549916,48.690678807741556,45.532638755223736,41.363036748157526,43.01459448276766,47.45577267061286,68.91324262387589,148.43286926692693,72.7263453464006,44.168846261707564,41.38153223807392,37.85191014088657,38.201380946781136,57.17524234884466,99.55535731767264,176.96707598543534,83.29823085727026,33.13164643565983,30.165808628000494,29.355851991156243,32.01460989683884,44.38832163520318,104.47997893329182,88.14800180348954,60.64408989932777,0,0,0,0,0,0,1,0,0,0,0,0,0,0,0,0,0,0,0,0,0,0,0,0,0.0,emg_gestures,54.0,repeats_short,2018-05-11 14:05:34.118,0.0,43.346905177725596,0.0
44.55243693278943,7.749580067848565,7.583060453766346,7.387214252390828,7.5045091658538725,7.9972625746399535,9.457156439092776,12.136048209842793,9.05390028999675,7.284401351435086,7.483985625190876,7.134392979301509,7.0906627587419635,8.402683863728303,10.765599852705458,13.303259980881963,9.182936972076154,6.564150066438941,6.358576779836705,6.313831661204091,6.471348765216721,7.318587535344386,9.658128967157985,9.861143826329913,8.788172017714105,6.086752561804426,5.937161881014709,5.791335574273181,5.847866395790715,6.245788661164632,7.445214848722078,9.471881328420851,7.139916441338016,5.839255406023073,5.9118199886144875,5.628314274690612,5.605595178379958,6.602861555985146,8.258559190396308,10.394925676932537,7.262816389377986,5.179606149369334,4.987936169591719,4.985865924735034,5.114092116962042,5.733204033513686,7.530643941217035,7.945228881057477,6.927690715562976,-7.587017755385186,-7.488304846553434,-6.2703844871243355,-8.463719284065903,-8.078719896329476,-10.669328237506083,-22.49376627259106,-9.192910327818064,-1.449416653314592,-4.775082989442509,-6.425862435144493,-5.292327287465863,-7.814664023026535,-9.298881996902942,-7.654782924023032,-5.611025557721247,-0.5941570450765079,-1.1025260480072179,-0.4350180122167515,0.3514856725535287,1.330434037963939,10.793921747433128,15.455713388302904,3.417774194846359,0,0,0,0,0,1,6,0,0,0,0,0,0,2,2,0,0,0,0,0,0,1,0,0,0,0,0,0,0,0,0,0,0,0,0,0,0,0,0,0,0,0,0,0,0,0,0,0,15216.881404511065,14842.904702536773,14478.338935682952,14619.665989476787,15614.47165291158,18613.037121805195,23679.703321052126,17849.79110334504,14598.138515057683,14779.549971536218,14070.78568672653,14013.987945949895,16507.153889962865,20646.39797599077,25987.314192331345,18157.040973444964,12949.015373423335,12469.840423979298,12464.664811837585,12785.230292405106,14333.010083784215,18826.609853042588,19863.072202643692,17319.22678890744,60.05480975667038,57.49897256501538,54.56796967419438,56.31555317909813,63.95431933692043,89.43779235576999,147.2835835843288,81.97274263155822,53.06124066299647,56.00888255350052,50.896854662403726,50.275097836247106,70.59963547214522,115.89111246819029,176.95620542797923,84.307528114972,43.08758552304334,40.430305094640936,39.86251042644707,41.87680885544482,53.55752634267204,93.26669382993097,97.24030630582838,77.23189708975823,0,0,0,0,0,0,4,1,0,0,0,0,0,0,3,1,0,0,0,0,0,0,0,0,0.0,emg_gestures,54.0,repeats_short,2018-05-11 14:05:34.118,0.0,43.5908508516453,0.0
44.79638260670914,7.5908446639241145,7.509619410172072,7.259082880824872,7.3905623668125155,7.930250739508399,9.02750710906544,11.715769421541626,8.842509354456817,7.195681830277986,7.414726127587734,6.937642148662358,6.8387865220477275,7.9491450011909475,10.36425310651618,12.6369397085496,8.55513825313122,6.187689028226036,6.05431517408021,5.974176027897528,6.127003163378663,7.0817985077725565,9.633654956732821,9.772542184218715,8.829189837703375,5.949120956761276,5.875809368218785,5.675206690971796,5.7678124429314614,6.195397605605508,7.174572219667601,9.069095503085695,6.949255771002857,5.771062014938139,5.859671010154416,5.447088117303234,5.373115959028413,6.267734518654405,7.912177677688764,9.676302925554369,6.738431238600277,4.867055818083612,4.730018559249596,4.717530268690987,4.841285762254406,5.631872783095777,7.676200323427754,7.7412827246198965,6.846136629692095,0.8030970541353772,0.5334865282593935,0.2678418998273955,2.0513476122196757,2.7543485523042506,1.5158415160425154,2.8132762135857163,3.8682553128261112,4.933566434598076,3.528777713409667,1.3897378426241778,4.309205435257018,3.0325389690649764,4.186267773250424,-14.268306545404057,-2.340762499729718,4.144802511627507,2.738802408452826,4.69477830426251,3.6855677639822364,2.5367188227121016,-3.682275333950443,-7.943845498996065,0.3659865675115572,0,0,0,0,0,1,6,0,0,0,0,0,0,2,2,0,0,0,0,0,0,0,0,0,0,0,0,0,0,0,0,0,0,0,0,0,0,0,0,0,0,0,0,0,0,0,0,0,14872.802391903191,14689.52342054696,14188.01672742949,14419.531107328654,15488.49401401377,17936.430549169003,22672.738757714236,17373.139427507143,14427.655037345348,14649.17752538604,13617.720293258084,13432.789897571034,15669.336296636013,19780.44419422191,24190.757313885922,16846.078096500692,12167.63954520903,11825.04639812399,11793.825671727467,12103.214405636016,14079.681957739444,19190.500808569384,19353.206811549742,17115.34157423024,57.62057851389751,56.394188899234216,52.69418372507277,54.62041179093158,62.88881335294744,81.49067399513653,137.25626382620783,78.18886843128271,51.77777639453455,54.97779824320285,48.13077037020104,46.76886471659729,63.188035258565655,107.41130751130453,159.66009846401366,73.1901040169308,38.28736386818231,36.65463350348578,35.69053370568017,37.539830910283655,50.151134725249236,92.80439584086886,95.49880637782965,77.95344477238038,0,0,0,0,0,0,3,1,0,0,0,0,0,0,3,1,0,0,0,0,0,0,0,0,0.0,emg_gestures,54.0,repeats_short,2018-05-11 14:05:34.118,0.0,43.834796525565004,0.0
45.04032828062884,6.427565131501211,6.324676354852947,6.029734455938157,6.196621856771772,6.626289306335736,7.6460806777677215,11.00626224470742,7.184684159530012,6.067393192448395,6.169462780168166,5.727183765919069,5.680091517130458,6.449952881681377,8.257454021765215,10.414505786364442,7.418726030358754,4.794071136961102,4.654592967271355,4.628257843259693,4.772738404985502,5.633972115666965,8.799779524444409,8.516488538848568,7.387120377020069,4.994145261106826,4.932433905061218,4.719197239950006,4.86108814916778,5.177564133767326,6.101735653039856,8.459414774405724,5.6132502814926255,4.8706560019635585,4.871345337003914,4.494120136352867,4.496601567068404,5.137003236078951,6.453910264436566,8.070595611049265,5.95816069509222,3.8189010712236975,3.732459112082042,3.7071906238561425,3.8346632554180613,4.493015993965881,6.7903356347624735,6.6732214743390275,5.801829032701068,14.697933009559176,13.928875878605627,12.948684889894736,13.991597641032229,11.442242387885308,6.6760850290636595,10.024991498933582,16.37977189432714,13.46792109714597,14.025812689371632,13.47685734877097,11.319335048866916,5.555613753811493,3.6155416643414,0.15392017846081174,16.31122922150133,7.979755502201955,7.902478020711348,6.276334569016992,6.13503462934557,7.004531459137314,3.65710675488835,6.249656525315654,12.588652963250862,0,0,0,0,0,0,6,0,0,0,0,0,0,1,1,0,0,0,0,0,0,0,0,0,0,0,0,0,0,0,0,0,0,0,0,0,0,0,0,0,0,0,0,0,0,0,0,0,12485.363152767066,12331.084762653045,11797.993099875015,12152.72037291945,12943.910334418317,15254.339132599638,21148.536936014312,14033.125703731563,12176.640004908895,12178.363342509787,11235.300340882168,11241.50391767101,12842.508090197378,16134.775661091415,20176.489027623164,14895.40173773055,9547.252678059243,9331.147780205105,9267.976559640356,9586.658138545154,11232.539984914703,16975.839086906184,16683.053685847568,14504.57258175267,41.30490224955827,39.989215005962,36.34870056275496,38.39244896829415,43.90333797219212,58.46252605918866,121.13239026275421,51.61320941994488,36.8078988528829,38.05571233379096,32.79137803204326,32.25439610146818,41.58612006893376,68.14062981035718,108.42751751271463,55.02912943255257,22.97757860011738,21.65762539852578,21.41088638859624,22.769114404168114,31.72612336183927,77.42327604634806,72.5292493920052,54.56775541999147,0,0,0,0,0,0,0,0,0,0,0,0,0,0,0,0,0,0,0,0,0,0,0,0,0.0,emg_gestures,54.0,repeats_short,2018-05-11 14:05:34.118,0.0,44.07874219948471,0.0
45.284273954548546,6.509234581449046,6.132571716500031,5.924218833365985,6.168406715946096,6.405961002179823,7.268911169958058,11.3544379398565,7.420462222421792,5.939740815161857,6.073021811109885,5.662527238890907,5.695807436203081,6.634639393311715,9.133040102533942,10.91677892098505,7.722586232630694,4.834732667029397,4.691172254700593,4.671998778572642,4.830260806029215,5.569815298809004,8.64790496802301,8.123424970414156,6.862423008290616,4.993247800392247,4.753540617726574,4.5948113252303395,4.8022332949246875,5.006577038684327,5.806645165401102,8.810211021828305,5.7794708923205995,4.69858878140379,4.740162341948216,4.403494662569557,4.481396728496571,5.271418676797264,7.0877656886073295,8.441901857916708,6.110454019275284,3.853950178788348,3.7613925992626087,3.722208680162287,3.863797683665912,4.432544697458048,6.774678950621147,6.545329360980303,5.48201675067357,6.440964627156896,6.0188083622537025,5.463351019680616,6.65647704849569,5.88329984082295,10.541716955313456,13.13463536427616,7.315255014717858,3.0758850714547865,3.0468213403791164,4.618716165476304,3.0617013512746354,5.922884884868644,9.996067799434064,28.763389800426435,10.150025728232515,3.16171290434494,3.6687841105993364,2.0440418524476094,2.417773134755893,2.202396151415434,8.625390136970898,17.058816305106625,6.582531033356359,0,0,0,0,0,0,3,0,0,0,0,0,0,1,3,0,0,0,0,0,0,0,0,0,0,0,0,0,0,0,0,0,0,0,0,0,0,0,0,0,0,0,0,0,0,0,0,0,12483.119500980618,11883.851544316436,11487.028313075849,12005.58323731172,12516.442596710818,14516.612913502755,22025.527554570763,14448.677230801499,11746.471953509474,11850.40585487054,11008.736656423891,11203.491821241427,13178.54669199316,17719.414221518324,21104.75464479177,15276.135048188211,9634.87544697087,9403.481498156521,9305.521700405718,9659.494209164779,11081.361743645119,16936.697376552867,16363.323402450758,13705.041876683925,42.36928353746203,37.60822361880226,35.09588109088793,38.04801293707229,41.03512162239661,52.83705363454152,128.92295626889506,55.0632550234647,35.280297873518336,36.88156844080814,32.06370168842276,32.44149076228997,44.018385146663206,83.41101932893761,119.164819939658,59.637909601400935,23.373013431345242,22.006418382883556,21.826826761673555,23.33032458114389,31.02120560984435,74.78416417708571,65.98529574525365,47.08404772455477,0,0,0,0,0,0,0,0,0,0,0,0,0,0,0,0,0,0,0,0,0,0,0,0,0.0,emg_gestures,54.0,repeats_short,2018-05-11 14:05:34.118,0.0,44.32268787340441,0.0
45.52821962846825,6.784095660138278,6.5854911345172376,6.393145184823125,6.461248890969643,6.655949617530146,7.302395691789961,12.280522482122171,7.632706322569938,6.2266476148939445,6.617987504068759,6.005483809838178,6.002758972038629,6.926497802676169,9.57419326861662,11.505672612440808,8.06167006139887,4.927369064085891,4.717865493945979,4.821434138275858,5.047470626349954,6.10669739988421,9.711372688329739,9.094195106768279,7.400562391389359,5.282466913533,5.096300830841877,4.9700521028329625,5.022950385869158,5.190402696271813,5.8443685054265675,9.379767760547713,6.041752807365499,4.890191992148821,5.12889195035623,4.690202335151087,4.7261767552356435,5.522407286359407,7.458412449134755,8.865548524394976,6.36339309661699,3.910052510425936,3.711906428449297,3.812843844346369,3.9935034745422717,4.753891189647876,7.551234119096989,7.167970238762391,5.768908932789206,-12.032490786569449,-10.82550191874451,-11.958345097576341,-9.25293696487686,-11.89431441598367,-5.861097996923657,-3.4336780074369173,-10.844532482047665,-14.786593355891887,-13.134102296333642,-11.351317122621033,-9.788585497203359,-8.302542927681998,-5.10611547985598,-7.3427752640839685,-17.65110175451457,-12.770626804534096,-11.43074087097732,-10.783378448058055,-10.398918160512036,-12.276992237593053,-14.512934653825328,-18.709394229053213,-19.749515941002034,0,0,0,0,0,0,6,0,0,0,0,0,0,0,5,0,0,0,0,0,0,0,0,0,0,0,0,0,0,0,0,0,0,0,0,0,0,0,0,0,0,0,0,0,0,0,0,0,13206.1672838325,12740.752077104693,12425.130257082406,12557.375964672894,12976.006740679533,14610.921263566419,23449.419401369283,15104.382018413746,12225.47998037205,12822.229875890574,11725.505837877718,11815.441888089108,13806.018215898517,18646.03112283689,22163.87131098744,15908.482741542475,9775.13127606484,9279.766071123242,9532.109610865922,9983.758686355679,11884.72797411969,18878.085297742473,17919.925596905978,14422.272331973014,46.02133339242121,43.36599357354375,40.87109790792047,41.74636934392267,44.30029762634847,53.32455707470932,150.78604819502416,58.25097274541564,38.76891848366176,43.796616105580945,36.064377790549045,36.03196144752182,47.97312811860161,91.6607622833204,132.37979075911886,64.99050514961958,24.27810479741271,22.257253960069793,23.244749807488766,25.474997898947567,37.289252808150174,94.30967538364447,82.70434921681345,54.76786342779423,0,0,0,0,0,0,0,0,0,0,0,0,0,0,0,0,0,0,0,0,0,0,0,0,0.0,emg_gestures,54.0,repeats_short,2018-05-11 14:05:34.118,0.0,44.566633547324116,0.0
45.772165302387954,6.577290097810172,6.5356069832945165,6.412085765520572,6.431717670978616,6.857907874155735,7.412143011408636,11.178268686443255,6.980055596531204,6.161738134997536,6.578493083844865,5.970375823646264,5.931023799410089,6.769000590467696,9.02606788741312,11.378167501535584,7.747636140282772,4.748297553471042,4.589470271376421,4.713945039598941,4.898767172091581,5.982086308538863,9.548548080398634,9.158133226349591,7.571217882984951,5.138090452223335,5.107394676289586,5.05638902984517,5.049688739312625,5.392261423483789,5.878004306611792,8.442474817055395,5.593704351371869,4.833206319627192,5.0912674657549175,4.708144956354939,4.67251525805612,5.309119117704583,6.925451586137214,8.740735847372637,6.132969802034083,3.7546422109385253,3.6104623362033963,3.7401978870264365,3.868138946783215,4.669726479918168,7.384693479696853,7.104779737578267,5.843746638092536,-10.515053394918457,-9.089802412513563,-8.144016612709247,-10.4819779623815,-9.53766000206098,-7.449081065640162,-26.435523138686662,-14.47584068334626,-10.350761967203024,-10.663275741346729,-7.671376727381362,-7.210313697674157,-10.298002309185552,-17.29462301731743,-30.088813754296424,-14.258140074175108,-8.80815970007109,-8.367666586939691,-7.767848775681505,-6.75825236934941,-6.225223162982163,-2.117290240148341,-17.23563320466291,-14.083441775881518,0,0,0,0,0,0,7,0,0,0,0,0,0,0,4,0,0,0,0,0,0,0,0,0,0,0,0,0,0,0,0,0,0,0,0,0,0,0,0,0,0,0,0,0,0,0,0,0,12845.226130558338,12768.486690723967,12640.972574612924,12624.221848281562,13480.653558709471,14695.01076652948,21106.187042638485,13984.260878429674,12083.01579906798,12728.168664387293,11770.362390887349,11681.288145140301,13272.797794261456,17313.628965343036,21851.839618431593,15332.424505085208,9386.605527346313,9026.15584050849,9350.494717566091,9670.347366958038,11674.316199795421,18461.733699242133,17761.949343945667,14609.366595231339,43.259797567009045,42.71043888286965,41.11125320862351,41.36371851784514,47.02677498083168,54.939577341367674,124.9527895685526,48.7207910612892,37.964230370818306,43.27014263589438,35.64291577698467,35.174632281517056,45.81841777084102,81.46962427399406,129.46138370989053,60.02578956837515,22.54588501343617,21.06127932300154,22.2191968417259,23.9959922425641,35.781898064127404,91.16022505313637,83.85823689538513,57.32195446055571,0,0,0,0,0,0,0,0,0,0,0,0,0,0,0,0,0,0,0,0,0,0,0,0,0.0,emg_gestures,54.0,repeats_short,2018-05-11 14:05:34.118,0.0,44.81057922124382,0.0
46.01611097630766,6.201954603357751,5.967992132619301,5.851923829565068,6.141192775997186,6.667726579440408,7.121459128641221,9.138294342280796,6.777726324468119,5.937653874010029,6.200884463235217,5.6082711855608345,5.6072348274803945,6.380211857969307,8.098177891707675,9.976165363352528,7.0532383110953525,4.651518476373812,4.589928551078676,4.56487709672497,4.677700419413946,5.400967274437949,8.382173929162372,8.077244406830935,6.75128157989689,4.7779907967118085,4.599386298954754,4.531139101780046,4.778043420098791,5.2099367038686815,5.648433549101317,7.229630617023524,5.497448851148244,4.563604128557675,4.723769735260862,4.350796061258728,4.347408248306696,4.976952858998833,6.260503311173409,7.839491653097904,5.446574894301875,3.6048752413179415,3.5888018652052582,3.600734756943921,3.7118588369833,4.353289093109692,6.5713839252998,6.327599647794656,5.222078738700879,17.81185795811698,17.552243371650576,17.665482492618793,17.203192830546378,19.407303819963705,16.458739932150838,19.83114963780816,19.313766618157,21.080941176169162,21.248491512348988,15.443658025444726,16.149662412879444,16.521818639349156,14.295520637923739,11.527496576604234,15.761833711793583,12.32488350863735,12.580936027994001,12.258980252823642,11.842627931738239,13.717131242439955,20.381641686241252,4.503373040219209,4.804308441994946,0,0,0,0,0,0,1,0,0,0,0,0,0,0,2,0,0,0,0,0,0,0,0,0,0,0,0,0,0,0,0,0,0,0,0,0,0,0,0,0,0,0,0,0,0,0,0,0,11944.976991779522,11498.465747386887,11327.847754450117,11945.108550246976,13024.841759671704,14121.083872753294,18074.07654255881,13743.622127870609,11409.010321394187,11809.424338152154,10876.99015314682,10868.52062076674,12442.382147497083,15651.258277933523,19598.72913274476,13616.437235754689,9012.188103294853,8972.004663013146,9001.836892359803,9279.64709245825,10883.22273277423,16428.4598132495,15818.999119486642,13055.196846752198,38.46411893472904,35.616164714364956,34.24427292019144,37.713842122304605,44.458481366436345,50.714680362286515,83.50606077118164,45.93746073918504,35.2557132928095,38.45048766984611,31.45216947515551,31.440755567635886,40.70611594696086,65.56918396302898,99.50271067252535,49.74601010829462,21.636512412804702,21.067217925740184,20.837918852009743,21.880856502000317,29.170436862620722,70.25994751997523,65.24145119115644,45.579759145124086,1,1,0,1,2,0,1,0,0,0,0,0,0,0,0,1,0,0,0,0,0,0,0,0,2.0,emg_gestures,54.0,repeats_short,2018-05-11 14:05:34.118,0.0,45.054524895163524,0.0
46.26005665022736,7.00466440449565,6.830049738763671,6.613890175896483,6.6532907683446565,6.969621205982862,7.212090605039742,9.643893585781038,7.1673234370372905,6.792100924512085,6.769288090721946,6.15253459988656,6.196820285856741,6.527641503876627,7.906268294208323,10.319868659449744,7.787517097230766,5.438105805372755,5.085051638987249,4.94257021262815,5.046141797583778,5.423633268885172,7.907723707926468,8.474618447055478,7.273773197841723,5.260561345510133,5.110712239988591,5.012888202163267,5.006263501604965,5.233235186588747,5.608100448349205,7.482998317078454,5.603529342060553,5.124154485357029,5.166680762206387,4.642862874151457,4.730588083214888,4.982243278942772,6.124949628691626,8.082282667638536,5.938156702484025,4.290713132420305,4.0297860314237495,3.8729850639006065,3.9672909611661833,4.320098104589835,6.210901809153696,6.6171457560979094,5.704788035229857,-6.109981726360225,5.5601659750945736,4.300954473221207,3.454453265174017,1.9637443637756142,0.11169719860687266,12.912115585440057,3.918822803223396,-2.347732100120659,4.050741889459093,3.435445586253948,3.40022131022703,2.1666191327285595,7.350083256084643,14.45139386056032,4.054310860869073,2.172047165144166,-1.254300955403254,-0.2994912163440624,-0.5236478556200268,-0.8117513109167263,-5.726389269680439,7.3359688065359165,7.622486261632302,0,0,0,0,0,0,0,0,0,0,0,0,0,0,2,2,0,0,0,0,0,0,0,0,0,0,0,0,0,0,0,0,0,0,0,0,0,0,0,0,0,0,0,0,0,0,0,0,13151.403363775335,12776.780599971478,12532.220505408168,12515.658754012413,13083.087966471867,14020.251120873014,18707.495792696136,14008.823355151384,12810.386213392572,12916.701905515969,11607.157185378643,11826.47020803722,12455.60819735693,15312.374071729064,20205.70666909634,14845.391756210061,10726.782831050763,10074.465078559373,9682.462659751516,9918.227402915458,10800.245261474589,15527.25452288424,16542.864390244773,14261.970088074642,49.0652461896813,46.64949012760804,43.74118803031575,44.264483066803706,48.57373734466774,52.0141621466638,93.00305151509392,51.369686077230135,46.12994736458697,45.82274432524025,37.85102522703968,38.39866779688396,42.61002878994709,62.50856536591853,106.49954987609526,60.645334697596354,29.572480221400188,25.857736875172307,24.428949480825725,25.463498095686898,29.41427523620926,62.523573217692295,71.81300855990763,52.90742875467438,1,1,0,1,2,0,3,0,0,0,0,0,0,0,0,1,0,0,0,0,0,0,0,0,2.0,emg_gestures,54.0,repeats_short,2018-05-11 14:05:34.118,3.0,45.29847056908323,0.0
49.67529608510322,9.858315897894853,10.067345079561541,10.77619574894635,11.762752914030427,16.623234029002347,30.139276079483764,23.353189311781808,12.342754186784102,9.640904782628295,9.114064596443079,9.85937579482763,10.374593403913472,18.97279523852604,26.11146954931912,25.208362320550954,15.033874083795705,7.933492605024515,7.575988833943975,8.294396271670879,9.425082847276288,17.007173539496666,21.55996028800227,17.732678517774087,13.551949537808383,7.3510282667240565,7.427502433738162,7.9515440283860155,8.356767779553888,10.73887315865636,16.873839109996155,15.870072410352165,8.862490065659573,7.290786676715979,6.862236340562327,7.190297832419646,7.435992554291591,11.815982031579733,15.506924776149544,16.371225486710948,10.54903379840287,5.9605712307235645,5.6684709835115505,6.22907867372412,6.878389363636494,10.841107711834843,13.903821819248195,12.042294436302642,9.472314514482045,2.657874984200948,1.3260359400549202,2.174503080498999,1.4701661452649368,-2.2907996289565773,0.1727710956689208,7.539216325768315,1.9980908143956562,-3.020393453788346,-1.6796735042449544,2.091981521931963,-0.29240025006396664,-7.473417456027718,-3.67728425436359,3.4559866253501363,5.800688565766427,-0.9070706466160914,-1.1374050274883185,-1.0500076668909255,-0.026471326159672515,-3.1560189584295664,-8.126463886548635,-2.827865840817293,2.670226444898193,5,3,5,4,10,12,20,6,2,1,2,5,8,12,14,8,1,1,0,2,12,10,7,6,0,0,0,0,0,0,0,0,0,0,0,0,0,0,0,0,0,0,0,0,0,0,0,0,18377.57066681014,18568.756084345405,19878.860070965038,20891.91944888472,26847.1828966409,42184.59777499038,39675.18102588041,22156.22516414893,18226.96669178995,17155.590851405817,17975.744581049115,18589.981385728977,29539.95507894933,38767.31194037386,40928.06371677737,26372.584496007177,14901.428076808912,14171.177458778877,15572.6966843103,17195.973409091235,27102.769279587108,34759.55454812049,30105.736090756604,23680.786286205115,97.1863113174615,101.35124945616583,116.12624110530685,138.3623481307342,276.33167583478524,908.3759165983591,545.3670317171761,152.3435763332587,92.94683538390572,83.06578786867033,97.20721330079658,107.6321325946874,359.96648244895624,681.8082265380463,635.4614544703595,226.01732815856636,62.94024216792218,57.39554859982075,68.79698923339917,88.83147042745686,289.2428343960544,464.82986354363493,314.44709702200987,183.65462101784297,0,0,0,0,2,25,8,0,0,0,0,0,14,17,11,4,0,0,0,0,15,14,0,0,0.0,emg_gestures,54.0,repeats_short,2018-05-11 14:05:34.118,0.0,48.713710003959086,0.0
49.919241759022924,8.281993234287874,8.20223160532567,8.716804699201457,10.536011875854442,15.24178777137374,28.880601409194337,22.955181105658337,11.795584611044795,7.965352563396976,7.810024748737344,8.64138120984934,9.011260520684427,18.050058297388002,25.77001681627362,26.246147845129002,14.186209855303934,6.711483632252586,6.627753633402974,7.226399862842035,8.454283651906739,16.21954392708827,21.185605756126346,17.716983696034355,13.268292861648465,5.887683929632084,5.830219840123461,6.064654213321433,6.96844773118179,8.961093156840022,14.91601069170187,15.391479906853068,8.134872270635356,5.7696117597790675,5.608122615087959,5.9585667586291065,6.1302896779335265,10.686373563043254,15.028497861276369,17.60202830933902,9.731965998467613,4.855940931756325,4.781590713007056,5.2446650740052485,5.871650865122016,9.678885248689506,13.431285479032196,12.121158071785045,9.251040620044934,11.832349263768226,12.366366227475677,14.293372019223362,16.530588108436728,14.78099648289452,12.014251972923502,40.39198219751666,18.678789234328143,6.328021608386064,8.882771597867208,12.239004058038946,13.729033621322525,23.28464727485096,-3.521724265805446,-16.7939685406757,-1.4788629888168003,6.1985553993172875,8.947685964547544,10.015150635243122,12.084137722487231,26.655482722292636,30.77198031531411,0.07768643756156557,0.19572719911232106,2,2,2,4,8,8,20,5,1,2,1,3,6,10,17,5,0,0,0,1,9,9,7,6,0,0,0,0,0,0,0,0,0,0,0,0,0,0,0,0,0,0,0,0,0,0,0,0,14719.209824080212,14575.549600308654,15161.635533303583,17421.119327954475,22402.732892100055,37290.02672925468,38478.69976713267,20337.18067658839,14424.029399447669,14020.306537719898,14896.416896572766,15325.724194833816,26715.933907608138,37571.24465319092,44005.07077334755,24329.914996169035,12139.852329390813,11953.976782517639,13111.662685013122,14679.12716280504,24197.213121723766,33578.21369758049,30302.895179462612,23127.601550112337,68.58939233055561,67.27559030054607,75.9823201217757,111.00744804362678,232.30950290934047,834.0692990650394,526.9401852124763,139.1316267635647,63.44416307423564,60.994342379841115,74.67265738075625,81.20242858856548,325.8040215520503,664.0936790680207,688.8158310852876,201.2291685918741,45.04199740463296,43.92509803128914,52.215411003072,71.45852032840207,263.00832582273904,448.7681757683825,313.8797661024696,176.03928623563695,0,0,0,0,2,25,8,0,0,0,0,0,14,17,11,4,0,0,0,0,15,14,0,0,0.0,emg_gestures,54.0,repeats_short,2018-05-11 14:05:34.118,0.0,48.95765567787879,0.0
50.16318743294263,5.613300516163762,5.608401913080698,5.469164730820749,5.779223026002464,6.093678242753612,6.560399681588188,9.87048819603258,6.333712848625125,5.1977887827437605,5.30988196426456,5.087469309334837,4.951700871374713,6.272741930298795,8.44350644416818,12.357523717950547,6.847049057232516,3.946457997815591,3.8475895997718985,3.9304834458070284,4.078169870742039,4.830978878828791,7.2446134850829615,7.377986438435474,5.76799844124969,4.043788138418435,4.0222204145549885,4.013589270148311,4.2374181143418115,4.45037488701626,5.129117216467427,7.256938453974165,4.71439777365175,3.7870589498418807,3.8363383507622166,3.717942335198879,3.687687686128747,4.71655933377176,6.24933177471045,8.826419079990423,5.131093907231347,3.0958163082359937,3.00798967025573,3.075485422755061,3.189092328390197,3.7638961574687224,5.613306885197718,5.744163678171868,4.526383607212595,-6.4703952140736485,-5.258390824698507,-10.149553866360847,-9.325217598039954,-6.047435876265348,-6.083540745546386,-8.261566537206765,-6.226983380749499,-4.436127946769403,-4.9768107350630535,-7.064830926423719,-7.025626971812951,0.22507291361928505,-2.8066598995142904,-7.133724105175554,-9.21082061731401,-9.058988767202804,-8.679200602951632,-7.075266542271558,-8.23458894175452,-8.239489681926328,1.0686950748736654,-0.971508496083751,-9.314735551820922,0,0,0,0,0,0,5,0,0,0,0,0,0,0,3,0,0,0,0,0,0,0,0,0,0,0,0,0,0,0,0,0,0,0,0,0,0,0,0,0,0,0,0,0,0,0,0,0,10109.470346046088,10055.551036387471,10033.973175370778,10593.545285854529,11125.93721754065,12822.793041168567,18142.34613493541,11785.994434129374,9467.647374604701,9590.845876905541,9294.855837997198,9219.219215321868,11791.3983344294,15623.329436776125,22066.047699976058,12827.734768078368,7739.540770589984,7519.974175639325,7688.713556887653,7972.730820975492,9409.740393671806,14033.267212994295,14360.409195429671,11315.959018031488,31.508799067669628,31.45316392398582,29.9101926541363,33.39708163720728,37.13213576114252,43.03865023257295,97.41320983558747,40.11527665583645,27.015969101341884,28.19459066550944,25.881449976664292,24.518754449654942,39.34462711532151,71.29062997803383,152.7083640589339,46.881261275937405,15.573638284566238,14.80340047060496,15.448031663251625,16.630469022816296,23.336297778831742,52.48167456949509,54.432810458786435,33.267374554701895,1,0,0,0,1,0,3,0,0,0,0,0,0,0,0,0,0,0,0,0,0,0,0,0,0.0,emg_gestures,54.0,repeats_short,2018-05-11 14:05:34.118,0.0,49.201601351798494,0.0
50.40713310686233,5.209322223719229,5.110657129743168,4.990504355480235,5.3833747266502225,5.845820792184723,5.525524382525427,8.431484680164846,5.63492260421707,4.4132631397130915,4.805214350932437,4.563319944907013,4.4821202561033004,5.3133576226677395,6.686084435670097,8.743226923704915,5.747261204503855,3.325669788291254,3.240928664547695,3.2594186689489155,3.382775353780247,3.933885287320877,6.059707162352394,6.002646246307001,4.6119752770345785,3.61657922500025,3.5384048394998557,3.5580574865809047,3.8484920694564555,4.225464730402168,4.194521564459962,6.063453584411318,4.043013853590344,3.100095921761543,3.3439320991965187,3.2128197354075803,3.2014903819520164,3.8455112539896334,5.016542289140732,6.684178548898453,4.270989956833678,2.5759812025221875,2.5154228748107488,2.509451523052764,2.5831083606195855,3.0853432507343856,4.612274750542745,4.632625866608469,3.5870730050125124,4.361690132050061,1.9499962882938986,3.476457254570006,6.384682847587347,6.789312528534691,8.540425583538273,-3.9427682268769937,1.6145310371490638,3.9954523825982347,3.2343357621317805,5.6482698194635885,3.695863975430031,6.80446774745862,6.212387338304437,9.508105238805769,6.90184419983293,2.1418730361779574,1.0380610776366264,2.602006765703947,1.8772242452533527,2.577790013451402,1.46940641794447,1.541731612314733,0.09912388236517522,0,0,0,0,0,0,2,0,0,0,0,0,0,0,0,0,0,0,0,0,0,0,0,0,0,0,0,0,0,0,0,0,0,0,0,0,0,0,0,0,0,0,0,0,0,0,0,0,9041.448062500625,8846.01209874964,8895.143716452261,9621.23017364114,10563.66182600542,10486.303911149906,15158.633961028296,10107.534633975862,7750.239804403858,8359.830247991296,8032.049338518951,8003.725954880041,9613.778134974084,12541.35572285183,16710.446372246133,10677.474892084196,6439.953006305469,6288.557187026872,6273.628807631911,6457.770901548964,7713.358126835964,11530.686876356862,11581.564666521173,8967.68251253128,27.13615238698233,26.11736345091679,24.902187210265474,28.976041485757126,34.168044560456636,30.53054014857086,71.08993308762757,31.752343174175586,19.47616340874073,23.08949976893386,20.82237843270666,20.088690762336633,28.229873032680427,44.70116496607171,76.44210966024576,33.0300956055091,11.059718864394423,10.502965416061686,10.623462074522372,11.442622424592933,15.47464229477903,36.71996433065939,36.031595351383245,21.269005227186803,2,0,0,0,2,0,4,0,0,0,0,0,0,0,0,0,0,0,0,0,0,0,0,0,0.0,emg_gestures,54.0,repeats_short,2018-05-11 14:05:34.118,0.0,49.4455470257182,0.0
50.651078780782036,4.982987976264612,4.981218018538663,4.8597108507183755,5.1352012516635,5.546466687088764,5.262244273395461,7.530266305443004,5.211466236440635,4.337596335673029,4.6908043251365825,4.498826163972286,4.470390596716543,5.368557589361699,6.304641900615671,8.136054188859703,5.502963206278783,3.2875682144941054,3.2218818781194214,3.257205610180897,3.46246168008595,4.06275167512972,6.2117848200843335,6.1521326371255665,4.648088542377491,3.4889307360967514,3.5088742419756165,3.517862413520145,3.7015585667666078,4.037532358007571,4.019775512320737,5.44092335886838,3.795576254545065,3.0735969739455222,3.316013276627182,3.2009328974394125,3.217759333051493,3.885523596666659,4.792483436778407,6.069712293335976,4.0826095618393605,2.5489847541744295,2.4828407614555936,2.4889448993519205,2.623204886018018,3.1306733239574296,4.705104187038641,4.807277154670866,3.5952009546085195,5.356176765199219,4.156659334647325,6.576578837917593,5.818389146155503,3.6224197704039396,3.3591166952107194,5.8385074421050955,6.309126463765839,5.50109201381003,5.349851516959559,3.4904605942446656,2.5150196397521887,2.823899393160194,3.569622880528472,10.289177246427299,9.770801110306234,6.435743474134182,4.145223319112333,3.6999949964192043,3.931102615083507,4.052500000787386,4.838940590637155,6.734367896351266,6.757401902798451,0,0,0,0,0,0,0,0,0,0,0,0,0,0,0,0,0,0,0,0,0,0,0,0,0,0,0,0,0,0,0,0,0,0,0,0,0,0,0,0,0,0,0,0,0,0,0,0,8722.326840241878,8772.18560493904,8794.656033800362,9253.89641691652,10093.830895018928,10049.438780801842,13602.30839717095,9488.940636362662,7683.992434863805,8290.033191567954,8002.332243598531,8044.3983326287325,9713.808991666647,11981.208591946019,15174.28073333994,10206.523904598402,6372.461885436074,6207.101903638984,6222.362248379801,6558.012215045044,7826.683309893574,11762.760467596603,12018.192886677167,8988.002386521299,24.830076398084056,24.812337412331566,23.616734925502517,26.370271747582795,30.763180407885315,27.691183037976383,56.70295994495807,27.159380164309997,18.814471392194108,22.00346599092334,20.239191752037534,19.983987846796545,28.8209008418029,39.74833071212688,66.19511552532362,30.282404009636874,10.807856367250972,10.380364773685397,10.60906283992638,11.988203496761653,16.505611788304435,38.58587908429158,37.847218910782566,21.604195908817676,1,0,0,0,1,0,1,0,0,0,0,0,0,0,0,0,0,0,0,0,0,0,0,0,0.0,emg_gestures,54.0,repeats_short,2018-05-11 14:05:34.118,0.0,49.6894926996379,0.0
50.89502445470174,5.707669458959541,5.7439080434894425,5.667754286575645,5.862003432179655,6.262317278790823,6.766121487023219,10.069987221918169,6.71096018781073,5.237895803858255,5.390580755523891,5.282332570901038,5.261364922229859,6.436543314950288,7.659989065541564,10.426030394581394,7.169278833838402,4.191984102436098,4.080059082781557,4.163009700411882,4.4143684584000535,5.072168038622753,7.187438150778879,7.232730183624092,5.862098893878638,4.1597497755587405,4.15764716593068,4.197428474655924,4.329659185757158,4.6392571532110916,5.019698760477705,7.059033781521667,4.978156918185775,3.857558097559013,3.926616205590537,3.8784177846802637,3.898023228264602,4.7957151610829305,5.8057890789538105,7.7189809200115125,5.391154413609818,3.270780177572043,3.135798430659987,3.194751040892815,3.4239982139241167,3.9524459179356692,5.570667811639522,5.798245520083331,4.597991270416616,4.64363299438989,5.986004325471283,4.52962211826868,5.082513893197431,4.26421194034097,3.7808141032227516,-1.8919415704447138,3.825533694343382,4.308197645186176,7.109070015058547,4.230670850020337,7.1256560483636715,4.4299640363083865,5.391516998695822,12.292131382168275,6.391620047921439,4.89526451764103,5.370664117791677,4.504768613930139,5.048881148268711,4.973765326696805,7.926919335810027,13.04345834031779,10.064463755900071,0,0,0,0,0,0,2,0,0,0,0,0,0,0,2,0,0,0,0,0,0,0,0,0,0,0,0,0,0,0,0,0,0,0,0,0,0,0,0,0,0,0,0,0,0,0,0,0,10399.374438896852,10394.1179148267,10493.571186639809,10824.147964392894,11598.14288302773,12549.246901194263,17647.584453804167,12445.392295464437,9643.895243897532,9816.540513976342,9696.04446170066,9745.058070661506,11989.287902707327,14514.472697384526,19297.45230002878,13477.886034024545,8176.950443930108,7839.496076649968,7986.877602232037,8559.995534810292,9881.114794839174,13926.669529098805,14495.613800208326,11494.978176041539,32.576166639987356,32.99221703834253,32.12342996613417,34.363058692235256,39.21656726146371,45.778336093682036,101.38090101837665,45.02485038733175,27.434533549170883,29.058053232795572,27.90282041114386,27.680794937245256,41.426885997954486,58.67456838865087,108.69867490293342,51.39488447122641,17.571488806513376,16.646537374251896,17.329898066224647,19.484951906124024,25.726187149074196,51.658021209616265,52.312123049172705,34.36398408074813,1,3,0,1,1,0,0,0,0,0,0,0,0,0,0,0,0,0,0,0,0,0,0,0,0.0,emg_gestures,54.0,repeats_short,2018-05-11 14:05:34.118,0.0,49.93343837355761,0.0
51.138970128621445,5.527443427740406,5.484481682767781,5.440975643215308,5.6728376008459245,6.0663749694894555,6.394213988360369,9.645312279026788,6.540600907380671,5.025450639648085,5.172850378669662,5.03093191537212,4.960128892697082,5.948329233199347,7.138198055832482,9.867165736715021,6.972345981724374,4.001983461262558,3.8924943437566646,3.9628713698826252,4.1634438159238085,4.74202477310933,6.391209072708111,6.669524016496897,5.6380477556736945,4.077526151777458,3.998360275848959,3.997996128031108,4.1704958549013496,4.467785938543141,4.6289410060979455,6.848595107166542,4.851765835465079,3.717069148068293,3.7752153993948485,3.6946945057937888,3.693402871208671,4.4428538829358715,5.283518177533823,7.238204123433526,5.232542804974933,3.091192572138919,2.986230043578339,3.0680395702829246,3.2655824274976646,3.759638462768709,5.115904388307178,5.381671444666211,4.467792398295668,-0.6860540892787945,-2.8433977967331483,-2.383017607643268,-3.7978504293464326,-2.3570558642291637,-0.26532609022844245,-1.079630968208125,-2.8405065869508945,-0.3689503235346052,-1.0449590624792489,-0.0682542852626078,1.6090223800950696,0.4128512785608738,0.1663379003447112,-3.4265139756752827,-3.8546410742479686,0.1334726225070364,2.095189432569894,1.9042811632391956,1.3944789118408476,2.87545139650169,1.4560952200314574,1.5059201589329145,2.6779853256581756,0,0,0,0,0,0,2,0,0,0,0,0,0,0,2,0,0,0,0,0,0,0,0,0,0,0,0,0,0,0,0,0,0,0,0,0,0,0,0,0,0,0,0,0,0,0,0,0,10193.815379443644,9995.900689622398,9994.99032007777,10426.239637253375,11169.464846357852,11572.352515244864,17121.487767916355,12129.414588662697,9292.672870170732,9438.038498487122,9236.736264484472,9233.507178021677,11107.13470733968,13208.795443834559,18095.510308583816,13081.357012437333,7727.981430347298,7465.575108945847,7670.0989257073115,8163.956068744162,9399.096156921772,12789.760970767946,13454.178611665528,11169.48099573917,30.550409864073305,30.077177222823277,29.6016939777839,32.18012557596502,36.79917837570724,40.88413568424512,93.03108934523499,42.777956633314304,25.253264096118865,26.755132394561684,25.30801404484259,24.600622420037865,35.379046539423754,50.949595548713006,97.35711259513013,48.61166067343951,16.013896719955852,15.14941711404511,15.702359629606947,17.332954961474876,22.484381043864524,40.844382651660986,44.47653351924267,31.78424044596852,3,5,1,2,3,0,1,0,0,1,0,0,0,0,0,0,0,0,0,0,0,0,0,0,0.0,emg_gestures,54.0,repeats_short,2018-05-11 14:05:34.118,0.0,50.17738404747731,0.0
51.38291580254115,5.159304663107487,5.061881369730106,4.988133312400281,5.266955784520624,5.5711754087458605,5.355966317932799,7.543946935681683,5.3467907134700825,4.464427409494875,4.868047984699372,4.577434627624938,4.4290427606416465,5.149789535876658,5.518517541840288,7.392940210807786,5.786624713359354,3.3373163397760672,3.287823217231343,3.281517168787559,3.3993733323875417,3.982013354958653,5.964298407557293,5.8585702081341795,4.655996805052845,3.6911768851490487,3.6490103627933896,3.6544436829048106,3.8490711688616357,4.023912866601668,3.981505424792782,5.52124425539787,3.922013012150139,3.17736589250093,3.4617086875820706,3.312377861041032,3.2799340061026667,3.781276492741525,4.194406046866609,5.580451927330048,4.137585642055435,2.537930148133105,2.547937559596675,2.5644187167427743,2.6240407403754427,3.169006230574532,4.6103055208859915,4.544036155400965,3.609543511463661,-10.674423004392025,-9.740020048930358,-8.939176889455222,-10.982875003087294,-8.642346950891815,-10.039013131461118,-3.9944999988807357,-7.211812665743743,-8.346624745789867,-10.419315199476612,-8.683647244156635,-10.03607975067721,-9.611671217634314,-11.723176235418645,-17.85231825279656,-13.03342756651492,-8.110716328664942,-7.815185853911481,-7.77909222504363,-7.2008039553918035,-9.256456612835954,-12.583674777088248,-15.149558648442072,-12.164011254527448,0,0,0,0,0,0,0,0,0,0,0,0,0,0,0,0,0,0,0,0,0,0,0,0,0,0,0,0,0,0,0,0,0,0,0,0,0,0,0,0,0,0,0,0,0,0,0,0,9227.942212872622,9122.525906983474,9136.109207262027,9622.67792215409,10059.78216650417,9953.763561981956,13803.110638494676,9805.032530375347,7943.4147312523255,8654.271718955177,8280.94465260258,8199.835015256667,9453.191231853812,10486.015117166522,13951.129818325122,10343.964105138588,6344.825370332763,6369.843898991688,6411.046791856936,6560.101850938607,7922.51557643633,11525.763802214979,11360.090388502413,9023.858778659152,26.618085487662395,25.62259374151864,24.881377059174575,27.74060410719781,31.037843303733343,28.68601293343142,56.90883552765884,28.585821837313194,19.93097595476686,23.697880723406552,20.952901828716065,19.616305466775316,26.519821821167437,30.454010351917002,54.65443147379265,33.48502109388939,11.137115006399565,10.809717351852491,10.768270188996654,11.55489771020255,15.856414472518317,35.57284620664134,34.32272128243771,21.678286464586446,3,2,1,1,2,0,1,0,0,1,0,0,0,0,0,0,0,0,0,0,0,0,0,0,0.0,emg_gestures,54.0,repeats_short,2018-05-11 14:05:34.118,0.0,50.421329721397015,0.0
51.62686147646085,5.151655577483919,5.0446663792087305,4.937774488165092,5.200231320637042,5.420178889271707,5.185898520511103,7.315813489746276,5.338763959100874,4.433229502647029,4.786394930844473,4.525116672235345,4.425409804861225,5.14025944084515,5.613862220400317,7.8831151621195685,5.843025140435802,3.297324665894032,3.2243903788548085,3.2328146647405975,3.417557671992819,4.040750326572056,6.1395156882514765,5.842267692101932,4.662752797198403,3.7405381649607605,3.714063570279491,3.6945967271185,3.8489460491777585,3.9755583880265384,3.9286446320860566,5.232799500752256,3.970977752639535,3.216092811996076,3.499898341369678,3.342838148711306,3.329600802568307,3.8826388877077633,4.339448308503832,5.953622752975715,4.246941528171049,2.5261885748650186,2.505005516847395,2.5184271056071412,2.634949533903679,3.145575452988045,4.588033243694757,4.368884275807836,3.582732461333825,-2.445681524510058,-2.383250016656223,-1.0362578968312466,-0.3688767342796737,0.44981465532580245,-2.053813354209992,-4.121648094919316,-1.9004718234550975,-2.84711533809793,-3.3475921434776703,-2.0883487109771597,-1.4096270151551789,-3.078179910977288,-5.513647436969165,-14.320435426603206,-7.227327885018154,-2.6998633853718186,-3.869187803150857,-4.246290996575751,-4.824794964883568,-8.26688426878275,-16.292947641507023,-16.642523225293928,-9.694958377495903,0,0,0,0,0,0,0,0,0,0,0,0,0,0,0,0,0,0,0,0,0,0,0,0,0,0,0,0,0,0,0,0,0,0,0,0,0,0,0,0,0,0,0,0,0,0,0,0,9351.3454124019,9285.158925698728,9236.49181779625,9622.365122944397,9938.895970066345,9821.611580215142,13081.99875188064,9927.444381598838,8040.232029990189,8749.745853424194,8357.095371778265,8324.002006420767,9706.597219269408,10848.62077125958,14884.056882439287,10617.353820427623,6315.471437162547,6262.513792118487,6296.067764017853,6587.373834759197,7863.938632470112,11470.083109236894,10922.21068951959,8956.831153334562,26.539553643029667,25.448656213312788,24.38156276828532,27.04237969043015,29.378339064396744,26.8935431615722,53.51977843562951,28.502199012649793,19.653509259591463,22.9094715148022,20.476603443260856,19.584170332351462,26.422045821196644,31.51429475778214,62.139043342052354,34.140940047262234,10.872345512082827,10.396653877502905,10.451046799026534,11.679628216803579,16.327507515328406,37.691971051070595,34.1320278547642,21.7410221615788,1,0,0,0,0,0,0,0,0,0,0,0,0,0,0,0,0,0,0,0,0,0,0,0,0.0,emg_gestures,54.0,repeats_short,2018-05-11 14:05:34.118,0.0,50.66527539531672,0.0
51.87080715038056,4.673016078492326,4.601930090410829,4.59398520222017,4.725903879765089,5.018950834889304,4.601612571627328,6.715748607789046,4.999039501146009,3.996252733767951,4.278405989538639,4.076214098592508,3.9981441249012657,4.80891585370501,5.230517160883603,7.542582645210475,5.368997008088873,2.966004840938151,2.8775320250699132,2.897702698411107,3.195780845271133,3.7791738564601567,5.923554564635001,5.913059777746527,4.426997870490096,3.492716881809169,3.4612147110719294,3.430331524989931,3.4947103613522637,3.7295653094916417,3.5991507508336187,5.008815895919963,3.8259533475165575,2.9888456058180752,3.22608354978859,3.0138432903607533,3.0157244428194945,3.6558814171826373,3.9802558776543004,5.657550393337004,4.006425339693278,2.330842127209291,2.2389265574855015,2.2294511282249894,2.4349381363909353,2.8543090306870087,4.349129050632351,4.486412483638391,3.4348181370292514,9.515928835482743,6.083817793911624,8.81681265071742,9.714941408431732,10.026935913802372,12.582565011987118,13.229559368113248,8.868357869278606,5.597281406540497,8.729927839848111,6.630702879490288,6.6649262429018155,8.604216029486487,9.421458330622535,7.9777655530473375,6.498928606327461,5.21168864655658,5.12035377969321,4.834170213324059,3.273099212295408,4.383609525255959,7.255492322922908,6.05839689082976,4.196981868094514,0,0,0,0,0,0,0,0,0,0,0,0,0,0,0,0,0,0,0,0,0,0,0,0,0,0,0,0,0,0,0,0,0,0,0,0,0,0,0,0,0,0,0,0,0,0,0,0,8731.792204522922,8653.036777679823,8575.828812474827,8736.77590338066,9323.913273729104,8997.876877084047,12522.039739799908,9564.883368791394,7472.114014545188,8065.208874471475,7534.608225901883,7539.311107048737,9139.703542956593,9950.63969413575,14143.875983342512,10016.063349233194,5827.105318023228,5597.316393713753,5573.627820562473,6087.345340977338,7135.772576717522,10872.822626580877,11216.031209095978,8587.045342573128,21.837079261173677,21.177758958838908,21.104699420523783,22.33335775073849,25.189726741878744,21.174753159299616,45.10021195081124,24.99035188762487,15.969998878815339,18.304719271543277,16.61540181623972,15.984933251988528,23.1255928589205,27.35827926535517,56.88761720368215,28.8259116368104,8.797149075525342,8.279999093388934,8.39639845954011,10.212751118462142,14.281535551990105,35.08720612339437,34.964275811818204,19.598262070876103,0,0,0,0,0,0,0,0,0,0,0,0,0,0,0,0,0,0,0,0,0,0,0,0,0.0,emg_gestures,54.0,repeats_short,2018-05-11 14:05:34.118,0.0,50.90922106923642,0.0
52.11475282430026,4.531009362358404,4.504410476118207,4.54479138392191,4.735428178404698,5.087714207548148,4.869305614740716,7.431070787244866,4.920214337088353,3.8669228542428606,4.221903499488177,4.030812236042022,3.9117129846937164,4.711204054612527,5.130904824397838,7.514000308986066,5.19889706055765,2.9422131764879635,2.930297353645309,2.853243967324682,2.996739116630855,3.403325230542363,5.292310671075714,5.7662068817057195,4.268224473233422,3.314971881429752,3.3136935946802915,3.3335299991040857,3.4733412223548816,3.7788903231143207,3.7696095369896736,5.636018803409323,3.731383225035915,2.857260155425746,3.087908924952348,2.9269751546668132,2.8844834297998805,3.505335263735737,3.891720586774251,5.728807662890897,3.8259522680246323,2.2957302930665233,2.273688048296888,2.175453425605536,2.26043166022035,2.572815957598517,3.8330601157117825,4.460024410231487,3.3023714214256774,8.636251529272826,9.886554488402917,10.884021862904406,11.1691884985017,11.77127897645373,13.340833658353326,18.709940376449275,10.819679736894418,9.192725257406327,10.613367426464217,9.866845164774169,10.422641945416077,10.315597057243043,14.820163500166274,16.10770463662791,11.313852498864541,8.13730414315605,9.427432712569,10.27984874135301,10.663794250593371,12.08842263418785,15.348990267605085,12.638563707067377,10.569564636469789,0,0,0,0,0,0,0,0,0,0,0,0,0,0,0,0,0,0,0,0,0,0,0,0,0,0,0,0,0,0,0,0,0,0,0,0,0,0,0,0,0,0,0,0,0,0,0,0,8287.42970357438,8284.233986700729,8333.824997760214,8683.353055887204,9447.225807785802,9424.023842474184,14090.047008523308,9328.458062589787,7143.150388564365,7719.77231238087,7317.437886667033,7211.208574499701,8763.338159339342,9729.301466935627,14322.019157227242,9564.88067006158,5739.325732666309,5684.22012074222,5438.6335640138395,5651.079150550875,6432.039893996292,9582.650289279456,11150.061025578718,8255.928553564194,20.52972084218821,20.289370982752367,20.65500134271319,22.423959318093097,25.88473028630857,23.709848229469507,55.21856969245556,24.20779690871926,14.953058549099211,17.824297191925947,16.24741575162707,15.301467335367198,22.195420994816267,26.325793582230748,56.45968554514409,27.028505794076096,8.656615464381405,8.58659125277129,8.140992894535787,8.980425526296703,11.582504582673076,28.00762258981968,33.24853977669367,18.217735993105105,0,0,0,0,0,0,0,0,0,0,0,0,0,0,0,0,0,0,0,0,0,0,0,0,2.0,emg_gestures,54.0,repeats_short,2018-05-11 14:05:34.118,0.0,51.15316674315613,0.0
52.358698498219965,10.72341198422132,14.20170645942098,15.911849567277397,14.017682472212307,9.150663496044038,8.484439640331635,10.483554516167095,8.770481251437412,11.095717594937952,12.517493667051065,11.005654914484426,9.306429617575338,7.308336512993351,8.08511313002874,10.081616461749142,7.617931582960213,9.02703332877833,7.601157948652786,7.967764741346771,7.648919799128661,5.51365873328075,7.027628418402585,7.20834744326334,6.527976270612201,6.327175409702701,7.5487938273629664,8.601897302135942,7.675373392154858,6.00983615845553,5.835750865140494,7.901989122302388,6.016329478217624,6.037838708150468,6.18702822199103,5.870206176973805,5.417070811190613,5.0978872523000245,5.9285018269187155,7.751759836035881,5.526920487248281,4.992617926328494,4.333582027674532,4.585944216863171,4.482564629710624,3.584025323036946,4.98489755442764,5.433837066718441,4.622919596083848,-49.01364504894582,16.44742119448089,-13.522556613988229,18.635503527524037,-9.045731458047877,-15.163220084529144,-10.811366078189934,-22.03641418795921,-15.034548907534454,-0.18710643640230984,-18.120939295818935,-40.37968248820481,-20.774166196907768,-18.52127874230231,-1.5549706664086287,-4.203379036499005,9.38419139106396,-3.5675386289621756,-22.013324426828103,-27.645624080552626,-23.33076496504686,-12.514238633799685,-9.097113040747828,-10.39027925440826,7,9,10,6,3,3,2,3,7,4,2,4,1,0,1,1,4,0,2,2,0,0,0,0,0,0,0,0,0,0,0,0,0,0,0,0,0,0,0,0,0,0,0,0,0,0,0,0,15817.938524256751,18871.984568407417,21504.743255339854,19188.433480387146,15024.590396138827,14589.377162851235,19754.97280575597,15040.82369554406,15094.596770376169,15467.570554977574,14675.515442434513,13542.677027976533,12744.718130750061,14821.25456729679,19379.399590089703,13817.301218120703,12481.544815821235,10833.95506918633,11464.860542157929,11206.41157427656,8960.063307592365,12462.2438860691,13584.592666796103,11557.29899020962,114.97474648807805,201.43597625231766,253.0290496892146,196.375009026657,83.62383758727778,71.88451368488727,109.77043333973724,76.83197097175955,122.94988541588206,156.13000062090745,120.90909194588596,86.43550826183706,53.32346215565989,65.26242035163165,101.56851122597605,57.95413241333683,81.43517421975342,57.70240844143255,63.38977058081826,58.41869310801863,30.321385563926153,49.27700455163788,51.85101420408233,42.5301629681775,3,9,9,4,0,0,0,0,6,4,5,0,0,0,0,0,0,0,0,0,0,0,0,0,2.0,emg_gestures,54.0,repeats_short,2018-05-11 14:05:34.118,0.0,51.39711241707583,0.0
55.529992259176126,11.901879688946233,15.167381466144793,13.520545366222958,13.004100748553055,15.730572369599056,28.028020883047315,32.63322853863891,18.853247746142543,12.411502384764988,12.703418431880046,12.23988629847862,12.428137681865248,18.959739048642472,28.563244972303224,42.03688465797711,27.221656115573793,11.058490744104189,9.991749558243306,10.373789554277515,11.621332290887306,17.813416287484692,23.876241032938918,23.50495953593157,19.723542496543896,8.540107980383366,9.539052426437799,9.420241537038255,9.494229981945159,10.926324048838959,17.52680131269262,18.979268384060198,12.048418848362079,8.635167259359077,8.723904837913398,8.682675263263977,8.84123919840208,12.922915766622365,17.577109330351384,23.098217565141777,15.104375685371954,7.64245274872277,7.168807673637813,7.373501828399986,8.225102856653093,12.074533680888342,15.328905940453039,14.378164258010838,12.098804634784171,-12.984462672057223,-13.878478988365362,-8.893425514436876,-6.238048547065194,-7.780709057562779,-2.4929733912757186,-1.4779725219899085,-10.806979076923922,-10.796458272923175,-11.334398328529778,-9.252952131031094,-9.143362028259343,-2.1843756436826496,4.781355443740194,9.899152533150165,-0.015156388955340105,-6.519007579827814,-7.899276890763723,-8.14401571448143,-7.24344929216309,-5.332531817810766,2.6019915447110904,0.9879673729889706,-2.928231158780381,5,5,8,9,11,11,9,6,5,5,7,7,13,19,15,6,4,3,3,5,8,8,9,6,0,0,0,0,0,0,0,0,0,0,0,0,0,0,0,0,0,0,0,0,0,0,0,0,21350.269950958416,23847.631066094495,23550.603842595636,23735.574954862896,27315.810122097395,43817.003281731544,47448.17096015049,30121.047120905198,21587.918148397694,21809.762094783495,21706.688158159945,22103.0979960052,32307.289416555912,43942.77332587846,57745.54391285444,37760.93921342988,19106.131871806923,17922.019184094534,18433.754570999965,20562.757141632734,30186.334202220853,38322.2648511326,35945.41064502709,30247.011586960427,141.6543378096462,230.04763476144876,182.80382569615952,169.10513618272668,247.44804379259256,785.566007834059,1064.9187464271442,355.43980797717944,154.04533329387792,161.37539299211363,149.81409460180512,154.45823826999253,359.4712675428178,815.8589532595548,1767.0995987972167,741.0182765504126,122.29015648850114,99.8346837643427,107.61465063218698,135.0537639115423,317.31478252920454,570.0670367488525,552.478050527981,389.01612122673606,5,7,2,1,1,12,16,0,4,0,0,0,3,7,37,6,0,0,0,0,6,6,12,2,0.0,emg_gestures,54.0,repeats_short,2018-05-11 14:05:34.118,0.0,54.56840617803199,0.0
55.77393793309583,9.598349427897642,9.068615339189774,9.284622286105167,10.618962010143791,14.18235750688175,26.029387326445747,31.784161825990026,17.757924052902926,10.547138162855399,9.177358503822218,9.290083438739844,9.541054525619762,17.349407133639286,27.546921189867213,42.08880820077407,26.687292475937316,8.788070590149706,8.027248285894727,8.222195478862636,9.437374414600555,15.364438746163668,22.30380457065959,22.56584779667457,18.639067380628955,6.50913952276737,6.289494738817148,6.479341782948996,7.173091395781053,8.854080375852773,14.239307759737828,17.33150559975846,10.145576328222605,6.759814361601844,6.1315907300021575,6.228801635472573,6.408668165221306,10.769817332237613,15.909885097399505,23.301408812481252,13.837373933909097,5.523026598904975,5.302906274968971,5.424722413360981,6.15481795668652,9.452459983826085,13.253911369506735,12.831469114393908,10.242038927256905,-4.545775186454612,-6.666576535059303,-7.582853998553444,-5.915116129251292,2.928713429619613,-9.6547932228777,-6.15862584295411,-2.512362822875378,-6.12917100674632,-5.434229566460646,-4.853910563957983,-3.297750000644985,-5.57834052925572,-3.2054042436624988,-1.724036983299328,2.0685442626262285,-5.831038153779943,-6.451052759106355,-5.61974188641298,-4.586256121091234,-8.568761759968062,-4.522208046555692,7.73206932145033,-6.0881548880520375,3,3,5,7,9,8,7,5,4,3,3,3,9,15,13,5,2,3,3,3,6,6,7,5,0,0,0,0,0,0,0,0,0,0,0,0,0,0,0,0,0,0,0,0,0,0,0,0,16272.848806918424,15723.73684704287,16198.35445737249,17932.72848945263,22135.20093963193,35598.26939934457,43328.76399939616,25363.940820556512,16899.53590400461,15328.976825005393,15572.004088681433,16021.670413053263,26924.54333059403,39774.71274349876,58253.52203120313,34593.43483477274,13807.566497262438,13257.265687422429,13561.806033402452,15387.0448917163,23631.149959565213,33134.77842376684,32078.67278598477,25605.097318142263,92.12535887479977,82.23758428149186,86.20234337605088,112.76199676472179,201.1388881627274,677.5201338358088,1010.2192843723843,315.34280611063673,111.23911137715972,84.22247061242494,86.30517385102613,91.0310744305521,301.0018846469794,758.8328522903494,1771.4349900650163,712.200091557243,77.22891796672204,64.43583909466098,67.60354652867917,89.06255659170549,236.0625451189221,497.45721644700217,509.216359065904,347.41284675406075,0,0,0,0,0,12,16,0,0,0,0,0,3,7,37,6,0,0,0,0,2,4,12,2,0.0,emg_gestures,54.0,repeats_short,2018-05-11 14:05:34.118,0.0,54.812351851951696,0.0
56.017883607015534,5.493477302397146,5.309671604780864,5.236640034786395,5.430227312661233,5.839358819586378,6.206641905505329,9.838347910646457,6.105709251708271,4.970029123310467,5.063508116203999,4.838206789678058,4.824578959748287,5.893566824777669,7.435466387245425,10.778577028173737,6.60990493517415,3.8213023223441698,3.813661944203274,3.8426685154475155,4.11407497244713,4.871256487070119,7.204771973228898,7.221167857402654,5.53265753473021,4.062808001770702,3.8498580566211067,3.8355015677967765,3.964879216386346,4.3239280799372315,4.822338815152754,7.39062943862205,4.689260405510388,3.7349645386279793,3.721876455724062,3.584565900494114,3.649954363528354,4.511668663788917,5.811226981031575,8.164051679813312,5.060068965276462,2.982361550319624,2.965425973156635,2.979485206676917,3.211320479246847,3.8341639113758226,5.639358594231126,5.715268291503331,4.3558438069657575,3.007267598157834,5.753291156021581,8.158207396088596,6.740754871727043,9.143784900204096,11.668590800439851,8.208247267942179,6.338557488664231,-2.868432093881549,6.882268350516694,4.184772621691138,4.928274477968108,2.089143113026932,1.0899171749078205,-2.3651053013268513,1.8234045857472037,8.663292245672459,3.7047071700125365,2.7250639786304682,3.3460821201104105,1.2113295189945905,0.014554243007209422,1.8163903877838319,2.82122178671601,0,0,0,0,0,0,4,0,0,0,0,0,0,0,1,0,0,0,0,0,0,0,0,0,0,0,0,0,0,0,0,0,0,0,0,0,0,0,0,0,0,0,0,0,0,0,0,0,10157.020004426755,9624.645141552766,9588.75391949194,9912.198040965864,10809.820199843078,12055.847037881886,18476.573596555125,11723.15101377597,9337.411346569948,9304.691139310155,8961.414751235285,9124.885908820885,11279.171659472293,14528.067452578936,20410.12919953328,12650.172413191154,7455.90387579906,7413.564932891588,7448.7130166922925,8028.301198117117,9585.409778439556,14098.396485577816,14288.170728758327,10889.609517414394,30.17717810435478,28.19167863415045,27.420511625453898,29.48524604952847,34.09685957729044,38.51966870880135,96.78670855564266,37.27503849934315,24.700017327823932,25.638216606026962,23.407270310774866,23.275686398267833,34.73404132450294,55.286138264210265,116.17771961012406,43.69066495115999,14.602345789985428,14.543918245881274,14.765599380972274,16.924554606043017,23.728096129221587,51.907254063838046,52.143403538288865,30.6094961311478,1,1,0,1,1,0,1,0,0,0,0,0,0,0,0,0,0,0,0,0,0,0,0,0,0.0,emg_gestures,54.0,repeats_short,2018-05-11 14:05:34.118,0.0,55.0562975258714,0.0
56.26182928093524,4.932079431785342,4.80260023328759,4.585653219214511,4.738129842587029,5.136056511580144,5.632220262758889,8.345074926817512,5.251449615842405,4.260141324782328,4.550263023130507,4.168858740198389,4.1398192586183145,4.897330068015592,5.944015129631759,7.682626443577094,5.0775593765056675,3.209977167788919,3.1772116168200104,3.094974861952027,3.2754764246351433,3.688743194141882,5.79437304213499,6.082784722413242,4.563086359464928,3.540895010703529,3.378289829933925,3.286702024026276,3.398516836183597,3.673279636646902,4.306014851086494,6.244203558601278,3.9656661295484077,3.108100189038284,3.2787112367271227,3.0010573968592835,3.044611315838014,3.618195984982058,4.5705379668158415,5.938852879483728,3.8414981110521826,2.4556811421156266,2.4264548155482,2.349675640433679,2.4880500699417962,2.821288081082856,4.423042510618605,4.875856384801706,3.6129687066589735,-2.943328582778775,-2.3765156904384264,-2.044217246164486,-2.379009314021741,-6.204204520825744,-6.544565819149699,-2.8148591880243643,-4.869593144500644,-1.4844680571132773,-1.3405168367836247,-2.3328404686885964,-3.1476211183466494,-2.5594142633946877,-2.6464251290508916,0.006190795062572363,-1.5397744453441646,-2.028014405731734,-1.3334340222999725,-2.504836726877985,-2.6896496462528376,-3.3250427753773355,-5.92999756354013,-4.510984337402846,-2.9126953904023134,0,0,0,0,0,0,1,0,0,0,0,0,0,0,0,0,0,0,0,0,0,0,0,0,0,0,0,0,0,0,0,0,0,0,0,0,0,0,0,0,0,0,0,0,0,0,0,0,8852.237526758823,8445.724574834812,8216.75506006569,8496.292090458992,9183.199091617254,10765.037127716234,15610.508896503194,9914.165323871019,7770.25047259571,8196.778091817807,7502.643492148209,7611.528289595036,9045.489962455145,11426.344917039603,14847.132198709322,9603.745277630456,6139.202855289067,6066.137038870501,5874.189101084197,6220.12517485449,7053.22020270714,11057.606276546512,12189.640962004265,9032.421766647434,24.324051821142348,23.064556251919882,21.027579583451878,22.449874337433172,26.37899480168284,31.72183273242344,69.64005899251386,27.577596852665266,18.147987836488866,20.704325427211877,17.379056086773858,17.137905997793574,23.983329232323065,35.330190127403675,59.01956353093885,25.778443393877527,10.302826976845163,10.094004718781616,9.578603882183646,10.72824361214348,13.606811851277266,33.57469625002594,36.99751978732474,20.818836668456612,2,2,0,2,3,0,2,0,0,0,0,0,0,0,0,0,0,0,0,0,0,0,0,0,0.0,emg_gestures,54.0,repeats_short,2018-05-11 14:05:34.118,0.0,55.300243199791105,0.0
56.50577495485494,5.173279211127831,5.113404161865408,4.966110479869254,5.1555765620375436,5.4637810160323435,5.342454314358194,8.831988155403211,5.671262119218506,4.455615267902668,4.813018594398853,4.479969230600225,4.384492329798433,5.10221165425663,6.197698993757098,8.220208184134506,5.515564238270236,3.1500245997686385,3.0462490261428066,2.953089481790635,3.07808606691607,3.4825558680973834,5.336888648228612,5.2360501023679715,3.9288183392917775,3.6092972229490115,3.528109894737439,3.5057650193474874,3.649931907421595,3.8570419068592985,4.08879684690355,6.263061875232145,4.091009364557425,3.1786858622608762,3.3725888181532633,3.1322317159928295,3.125123537934048,3.711433220296684,4.56109228094935,6.115676490209556,4.043071434066532,2.3790003000989777,2.3186688568171854,2.267544007792088,2.3620090678096077,2.7198089091964643,4.102942431898827,4.205835893052173,3.1179720893011114,0.1304743237983521,-2.928989849696361,-3.221403709883023,-3.3135212306540245,-5.271948226043316,-4.264597940197888,3.521708512479723,-0.19100625575399022,5.197604069149646,-6.257029632275169,-3.7944854085202335,-2.196464795233097,-5.593397402101791,-7.943328990576569,-14.125941604715994,-2.545266717461918,-7.1811729883857645,-2.7632325461575737,-2.909582663534411,-5.562199731286832,-5.93846169679654,-10.427780834832864,-5.699096575422271,-1.16377804962206,0,0,0,0,0,0,2,0,0,0,0,0,0,0,0,0,0,0,0,0,0,0,0,0,0,0,0,0,0,0,0,0,0,0,0,0,0,0,0,0,0,0,0,0,0,0,0,0,9023.243057372529,8820.274736843598,8764.412548368718,9124.829768553987,9642.604767148247,10221.992117258877,15657.654688080362,10227.523411393562,7946.714655652191,8431.472045383158,7830.5792899820735,7812.808844835119,9278.58305074171,11402.730702373376,15289.19122552389,10107.678585166332,5947.500750247444,5796.672142042964,5668.86001948022,5905.02266952402,6799.522272991161,10257.356079747067,10514.589732630433,7794.930223252779,26.756157845636313,26.14180965217693,24.65673756396462,26.571368757307912,29.84409902943395,28.535547704213123,77.9951586751083,32.158432672993904,19.847276326768178,23.16191010650213,20.065766178508277,19.218932893797714,26.021177112148507,38.386812195434224,67.54955795078534,30.416488692730706,9.922290942444146,9.278968525280938,8.719796299096078,9.47297837088549,12.127266528502666,28.482299631850466,27.416174197175806,15.435210977097222,1,1,0,1,2,0,1,0,0,0,0,0,0,0,0,0,0,0,0,0,0,0,0,0,0.0,emg_gestures,54.0,repeats_short,2018-05-11 14:05:34.118,0.0,55.54418887371081,0.0
56.74972062877465,5.106351911722948,4.979722964483264,4.832259451134535,5.08805248592018,5.394027601784145,4.882636308602005,8.520357951564362,5.689242887718544,4.3738567406428706,4.665412065694876,4.4426473294523205,4.349779164194087,5.137634586973026,6.390072733818007,8.807629482910237,5.665845773168697,3.011080081550908,2.9565632928336787,3.001009188393799,3.15829237380431,3.71124870112269,5.903955437136568,5.60380488717328,4.051889855621042,3.604942906073113,3.4448021605265895,3.4133154879250176,3.62187563468397,3.9117516676552944,3.7680961793248877,6.096791530891665,4.156163303138072,3.1141846717328785,3.2529218774747286,3.1228376436732788,3.128538131586005,3.8098121018818447,4.738827114288297,6.617435267753119,4.216795311158188,2.325353747595097,2.282342300039708,2.349630748140894,2.4688190912036254,2.934858647485788,4.45584844427131,4.383187897513636,3.235518610578064,7.233658746218037,5.832538871653818,5.777478503038203,3.765457639874005,8.510882314572203,14.673774644274072,17.529057844461143,11.770416837559933,5.942140728942386,5.573861746204888,4.612788492667104,5.172091002173222,6.583348523643779,7.672099329392773,5.476646542598637,7.233599668748642,5.824216571704122,5.047808313355115,5.201540148455807,4.5735951463200735,6.086544149962407,9.50072994994378,10.389516577202631,8.440965881961278,0,0,0,0,0,0,1,0,0,0,0,0,0,0,0,0,0,0,0,0,0,0,0,0,0,0,0,0,0,0,0,0,0,0,0,0,0,0,0,0,0,0,0,0,0,0,0,0,9012.357265182782,8612.005401316474,8533.288719812545,9054.689086709925,9779.379169138236,9420.240448312219,15241.978827229163,10390.40825784518,7785.461679332197,8132.304693686821,7807.094109183197,7821.345328965012,9524.530254704612,11847.067785720743,16543.588169382798,10541.98827789547,5813.384368987743,5705.85575009927,5874.076870352235,6172.047728009064,7337.14661871447,11139.621110678276,10957.969743784091,8088.79652644516,26.074168767025952,24.79687904452285,23.349941724728403,25.88664903740317,29.094361253591686,23.83894168804497,72.59649157111495,32.36667163658377,19.130536653583196,21.765612119480394,19.736616066080753,18.920066111964324,26.395262842660596,40.83263774761709,77.57393004200533,32.101733841475344,9.066423933503364,8.740780692136955,9.005598608992205,9.974432183288686,13.772209326364624,34.85522256373499,31.402022853709216,16.41718867066853,0,0,0,0,0,0,0,0,0,0,0,0,0,0,0,0,0,0,0,0,0,0,0,0,0.0,emg_gestures,54.0,repeats_short,2018-05-11 14:05:34.118,0.0,55.78813454763051,0.0
56.99366630269435,4.576584327151961,4.4518672998996,4.255875990850157,4.592538210073388,4.854744549963946,4.207985983341484,6.418434978142491,4.621978966433188,3.8284104284594864,4.157115804048886,3.989776421997189,3.981494514163867,4.433168062331419,5.141123117840706,6.8230917432876454,4.60026054317418,2.7648603011312534,2.7481439132754155,2.791430300937786,2.9812829171093673,3.471855880121612,5.634327047773199,5.198908775577856,3.7173839912174707,3.369328296919945,3.2231715664283307,3.1320541836575293,3.3852681053266047,3.6406709124029004,3.2717439376530275,5.003986653637847,3.5186017792259707,2.827991387307099,2.994084485994773,2.920372160760512,2.9588818175570553,3.3616644719421207,3.9324155126102807,5.261553286509366,3.520325774966375,2.161252252878308,2.1701793064414967,2.2079985338394557,2.3550832464456275,2.7600409580884895,4.25733701728603,3.997055354929596,2.9334231333583753,-3.7740859851736692,-3.4084663016783647,-4.768686757173312,-4.482115639003482,-2.9892302708573517,-1.066186249888915,-8.392543618370443,-4.346013718578946,-3.577232364052441,-1.7668778153391105,-1.588902729104928,-3.1870371668577855,-0.7065386256435766,-0.8208486941848747,6.437452927149231,-0.9719848560434192,-2.2755557348201965,-1.7809408566715854,-0.20038632941029477,1.0795525659675431,2.5261995014736796,4.1049580002062696,1.6371468431516183,-0.36979931955932166,0,0,0,0,0,0,0,0,0,0,0,0,0,0,0,0,0,0,0,0,0,0,0,0,0,0,0,0,0,0,0,0,0,0,0,0,0,0,0,0,0,0,0,0,0,0,0,0,8423.320742299862,8057.928916070827,7830.135459143823,8463.170263316511,9101.67728100725,8179.3598441325685,12509.966634094619,8796.504448064927,7069.978468267748,7485.211214986933,7300.93040190128,7397.204543892638,8404.161179855302,9831.038781525702,13153.883216273414,8800.814437415938,5403.130632195769,5425.448266103742,5519.996334598639,5887.708116114069,6900.102395221224,10643.342543215076,9992.63838732399,7333.557833395938,20.93712460513449,19.812934473757885,18.106608276909792,21.08425007315422,23.560306060174266,17.697582311281252,41.18109105128046,21.354755663482692,14.65092805969943,17.27638940010389,15.91335786765085,15.847341492389322,19.642417735412216,26.40826514531129,46.53027567152477,21.154792308324414,7.641355761516195,7.5493205778155215,7.789490337996962,8.885100673788374,12.050625626068829,31.743626556224545,27.027909055250934,13.817199719420241,0,0,0,0,0,0,0,0,0,0,0,0,0,0,0,0,0,0,0,0,0,0,0,0,0.0,emg_gestures,54.0,repeats_short,2018-05-11 14:05:34.118,0.0,56.03208022155022,0.0
57.237611976614055,4.497127585884927,4.469622385513607,4.354562119362483,4.5341228001940035,4.708592527872705,4.149789115957328,6.380070394224659,4.561264501147505,3.8212434082326903,4.199982240400556,3.966948938305592,3.8934350097767116,4.105242735914565,4.438573506908624,5.7990337373032785,4.3006128294250185,2.736380832410411,2.707668453789582,2.68529099371077,2.8071899231423476,3.1799556542078364,5.070071926542518,4.382440076926686,3.149067478800236,3.2305138806512312,3.17100535205604,3.1494402341952528,3.2663091916880034,3.421637527008992,3.1516996658402827,4.817579900072423,3.363149606898949,2.7719829684678614,2.967854229959665,2.852595328702745,2.8211839361059523,3.007049485577757,3.3835537453783386,4.5154764909623,3.230247189856834,2.1131589207779045,2.112427716450048,2.091796230759263,2.1868856253367563,2.511278583509267,3.9023041363800455,3.419215746486916,2.5021108790456736,-6.574065842026431,-6.13985836060616,-5.319509342948966,-1.637064476398466,-2.3482996557104903,-2.6019474181562385,5.9870940787556854,-1.8485440704109584,-5.865960331162264,-5.026482846108685,-3.41535376924905,-3.6153211037902846,-2.107983626110009,-1.4437090568140167,1.6934483987356508,-3.6266906739180644,-2.3051379045965725,-1.9545604042125477,-2.1846088176197345,-2.1945597149120584,-3.001020395637777,-4.390595394821763,-6.112302594434945,-6.2817057042871305,0,0,0,0,0,0,0,0,0,0,0,0,0,0,0,0,0,0,0,0,0,0,0,0,0,0,0,0,0,0,0,0,0,0,0,0,0,0,0,0,0,0,0,0,0,0,0,0,8076.284701628078,7927.5133801401,7873.600585488132,8165.772979220008,8554.09381752248,7879.2491646007065,12043.949750181058,8407.874017247372,6929.957421169654,7419.635574899163,7131.488321756862,7052.959840264881,7517.623713944393,8458.884363445846,11288.691227405749,8075.617974642086,5282.897301944761,5281.06929112512,5229.490576898157,5467.214063341891,6278.196458773167,9755.760340950113,8548.03936621729,6255.277197614184,20.2241209639294,19.97746694246575,18.961946469900585,20.55820424559657,22.170842422655795,17.220404498810687,40.689009572132825,20.803980184719208,14.601347874970822,17.639839975776137,15.736650231401143,15.158831741196252,16.852588517191702,19.6998953621706,33.62836938224328,18.49516244622056,7.487776283783449,7.33143588515062,7.210776620808274,7.880302762065148,10.112113303581365,25.705618996582064,19.205322572739213,9.916619940481725,0,0,0,0,0,0,1,0,0,0,0,0,0,0,0,0,0,0,0,0,0,0,0,0,0.0,emg_gestures,54.0,repeats_short,2018-05-11 14:05:34.118,0.0,56.27602589546992,0.0
57.48155765053376,5.196022274287729,5.302045345745539,5.092217366399483,5.16738387214248,5.329976023818269,4.628202017271446,6.767003930987883,5.138062977913986,4.584054777358426,4.954472742698543,4.618643318083171,4.4924759942859795,4.88777046304753,5.247445405956287,6.862052596524052,5.467493928599665,3.3318266788023085,3.2352460167342514,3.1937293295023577,3.2816119148212572,3.7748104329144234,5.8241358465186375,5.780450579076009,4.419238652331229,3.4745776735192004,3.4677252485229357,3.3881792752985667,3.474625906852002,3.6025900440190375,3.410461703455529,4.8576293060151166,3.571912901595002,3.0703986025824683,3.21736217213106,3.0784318740646652,3.0370152992522694,3.355601362169681,3.873404544838675,5.22172920708298,3.850096055540623,2.4382752634456715,2.3458854607873243,2.3089200537134915,2.374908841943652,2.805620685272545,4.407697522202454,4.40521958279465,3.294256615040847,2.5223291620731834,3.67658203486475,2.5101430829929914,1.1379810892587212,0.9018347001334064,-5.001978992368471,-0.8469343312408721,0.4437531189186599,3.5500668622238756,2.197348018608734,0.04612036630235927,0.488020730308139,-1.3125027225015646,2.2099441583983577,5.773859914442129,2.270764135327255,-0.10361540285998494,0.3918099434338198,0.9558285516914786,0.6262284362170054,3.5597460013010145,6.1885222146979,4.906563827182961,1.6542702645356435,0,0,0,0,0,0,0,0,0,0,0,0,0,0,0,0,0,0,0,0,0,0,0,0,0,0,0,0,0,0,0,0,0,0,0,0,0,0,0,0,0,0,0,0,0,0,0,0,8686.444183798001,8669.31312130734,8470.448188246417,8686.564767130005,9006.475110047593,8526.154258638822,12144.07326503779,8929.782253987505,7675.996506456171,8043.405430327651,7696.079685161663,7592.538248130673,8389.003405424202,9683.511362096688,13054.32301770745,9625.240138851557,6095.688158614179,5864.713651968311,5772.300134283729,5937.27210485913,7014.051713181363,11019.243805506136,11013.048956986624,8235.641537602118,26.998238531193294,28.11149646407155,25.930526913160193,26.70183611274319,28.408593227887533,21.420130270563025,45.78876579786674,26.39877797139598,21.013521810985495,24.54670225673458,21.33186429950713,20.182293622478696,23.890190751489072,27.533923973438238,47.0846557270252,29.892904802733373,11.101059434841805,10.466796143840753,10.199884299495592,10.768900616424814,14.249125117052923,33.92055395623743,33.4136088439459,19.52959487905169,0,0,0,0,0,0,1,0,0,0,0,0,0,0,0,0,0,0,0,0,0,0,0,0,0.0,emg_gestures,54.0,repeats_short,2018-05-11 14:05:34.118,0.0,56.519971569389625,0.0
57.72550332445346,5.394169056777758,5.354147996041495,5.132608397562973,5.267664360228588,5.386213101952889,4.738444165624895,7.141308523982284,5.287323002378151,4.7194753014424755,4.975588217706646,4.693405576008404,4.581496656792725,5.001258620605711,5.392453085702677,7.159739850076296,5.688571619886935,3.4698112422233063,3.412139358347014,3.337080798848623,3.460188424594116,3.928227576322613,5.979967234349587,6.106136651296917,4.716704886566528,3.765459561410702,3.6359961846660807,3.5220617461255563,3.6323516668864206,3.7414766262773744,3.5523048179107732,5.363887445835922,3.795897973697902,3.2861201714343435,3.3181043419733367,3.2033993082776226,3.178120757657624,3.5081376520426426,4.030354508017558,5.473719314397947,4.13745793274397,2.592054646133523,2.509243520207965,2.4576833255959105,2.570402267358623,2.9658245382703576,4.605849210259734,4.848753146854191,3.698497928187976,-2.9347017458177937,-0.2579633477472312,1.146787025965141,-0.9422889524008942,-1.7252250594108922,-1.4125642322738745,-9.453986782340479,-3.265189953723819,1.5530084089359395,-0.9089307982045463,0.9759088626189651,1.568326827883852,-2.2617387557274995,-1.8012575346053206,-5.730647877242729,-1.2981304126364828,0.8389076943827223,1.9671421836221539,2.5703746006883628,2.6042652596060383,3.547018219474038,6.435145132118393,4.990645247035395,5.384632928717866,0,0,0,0,0,0,0,0,0,0,0,0,0,0,0,0,0,0,0,0,0,0,0,0,0,0,0,0,0,0,0,0,0,0,0,0,0,0,0,0,0,0,0,0,0,0,0,0,9413.648903526755,9089.990461665202,8805.15436531389,9080.879167216051,9353.691565693436,8880.762044776933,13409.718614589805,9489.744934244754,8215.300428585859,8295.260854933342,8008.498270694056,7945.3018941440605,8770.344130106607,10075.886270043895,13684.298285994866,10343.644831859923,6480.136615333809,6273.108800519912,6144.208313989777,6426.005668396558,7414.561345675894,11514.623025649335,12121.882867135479,9246.24482046994,29.094017908715898,28.66664179181843,26.34355833400342,27.74790382475164,29.010401556224853,22.449473081354938,50.97855009560852,27.951031780156324,22.273243129401692,24.756474240393995,22.027904509775308,20.990020567860018,25.0114583160148,29.076671771702816,51.25914676368202,32.359444513425,12.039274072852331,11.64227857271276,11.135850570197741,11.972723588056505,15.430060461404477,35.75678667530077,37.278853685448595,22.245317358099,0,0,0,0,0,0,0,0,0,0,0,0,0,0,0,0,0,0,0,0,0,0,0,0,0.0,emg_gestures,54.0,repeats_short,2018-05-11 14:05:34.118,0.0,56.76391724330933,0.0
57.96944899837317,4.641377378638374,4.520466871236664,4.374072419133834,4.529507400587756,4.63951723502927,4.3842033837247865,7.260973026993201,4.8463520562216935,4.003149584593315,4.159947159615404,3.95760549483058,3.8527680182024837,4.286729323063595,4.976319821896138,7.1833394915633715,5.176123517544995,2.913942470222936,2.9010419846568727,2.8093953886147944,2.9664164311645407,3.2910399923696154,5.246691624238255,5.668234816632099,4.227485949342564,3.402507913188367,3.311881884318417,3.250490447777406,3.3379883306720037,3.4294368859673146,3.4187975855586132,5.631192856437128,3.7101322994143824,3.0199644799220455,3.0219969532489586,2.908548346571483,2.8550909474104933,3.211613721923108,3.8649596463628857,5.579025494484426,4.021800895041666,2.2912565479140357,2.2494431888367843,2.2009284807865286,2.3495915338139763,2.645113076249813,4.182076062783443,4.429199932232951,3.4140904715802165,-8.89301334734673,-8.943396937584307,-6.297099705009728,-6.9064390649793355,-7.212284934217211,-0.8440603179071022,-3.2738836045903774,-5.1956703056705,-6.954837150210088,-6.865172092110013,-6.215123355338607,-7.918912586359048,-4.354312064227415,-6.857068250346691,-8.695816054360677,-6.63486639399054,-3.995220524747106,-4.871615776944729,-5.291023163045169,-4.743411532310118,-9.2007264925379,-11.337863590906935,-9.83622570117684,-5.58722784594391,0,0,0,0,0,0,0,0,0,0,0,0,0,0,0,0,0,0,0,0,0,0,0,0,0,0,0,0,0,0,0,0,0,0,0,0,0,0,0,0,0,0,0,0,0,0,0,0,8506.269782970918,8279.704710796042,8126.226119443515,8344.97082668001,8573.592214918286,8546.993963896533,14077.98214109282,9275.330748535956,7549.911199805114,7554.992383122396,7271.370866428708,7137.7273685262335,8029.034304807769,9662.399115907214,13947.563736211066,10054.502237604167,5728.141369785089,5623.607972091961,5502.3212019663215,5873.978834534941,6612.782690624533,10455.190156958606,11072.999830582377,8535.226178950541,21.542318148800483,20.434593193881597,19.13242613373867,20.51640922269026,21.525048765513464,19.220960865240844,52.72169006297478,23.487031425366748,16.024231294912926,17.305149269320033,15.662594808544416,14.843707332119008,18.375881584253285,24.763461602692146,51.60029443006789,26.791733554426227,8.490269840206844,8.415540541669031,7.89240172725717,8.799003622711103,10.830800985854824,27.527217738889462,32.12848958246743,17.87120611086495,0,0,0,0,0,0,0,0,0,0,0,0,0,0,0,0,0,0,0,0,0,0,0,0,0.0,emg_gestures,54.0,repeats_short,2018-05-11 14:05:34.118,0.0,57.00786291722903,0.0
58.21339467229287,4.412531333895625,4.4113759223179665,4.301795960242567,4.446543433392346,4.589330329721261,4.332855030978858,7.2695581692321385,4.762600323190678,3.839545597230237,4.033845537246493,3.8883633718704864,3.796206693901994,4.273281567487094,5.031599839593964,8.127065837516396,5.90080218043224,2.751001859073586,2.7583973190969693,2.767828465494147,2.9520902148240684,3.311825017816797,5.532695081571848,6.1514068548455265,4.553270229535747,3.1969655644867014,3.1843654317428842,3.165618882377777,3.2684168262215176,3.3726738866434336,3.430185170102594,5.59971512388072,3.6098633867560506,2.8660351066487286,2.901158142104987,2.8390765616041134,2.8082679136561017,3.227758443607005,3.8882324727411826,5.942187110400959,4.320014022256125,2.1465660213624047,2.1467922134093396,2.1324901637558265,2.262178265888525,2.55519184044709,4.047711868382835,4.464966865611075,3.4476245977597464,8.703603614499983,3.8239061871837166,-2.0430503808996745,-4.354398870399354,-3.3861921636454255,-3.728545900487344,-11.631644197136506,2.284193225447968,1.6100891272455087,1.6163305603521394,-1.606395292354077,-2.5353338626154347,-2.7866333639536114,-0.825118550848563,2.193276821171544,-0.4681229093872403,-0.1400802815499267,-1.555771790265731,-2.5003474780160433,-1.9142160900751248,-2.3089855269840687,-4.211970876628203,-4.7234636558366905,-3.832616399375538,0,0,0,0,0,0,0,0,0,0,0,0,0,0,0,0,0,0,0,0,0,0,0,0,0,0,0,0,0,0,0,0,0,0,0,0,0,0,0,0,0,0,0,0,0,0,0,0,7992.413911216753,7960.91357935721,7914.047205944442,8171.042065553795,8431.684716608584,8575.462925256485,13999.2878097018,9024.658466890127,7165.087766621822,7252.895355262468,7097.691404010284,7020.669784140255,8069.396109017513,9720.581181852956,14855.467776002399,10800.035055640314,5366.415053406012,5366.980533523349,5331.225409389566,5655.445664721313,6387.979601117725,10119.279670957087,11162.417164027687,8619.061494399366,19.4674631963344,19.459508410332777,18.50352607422704,19.769037981510813,21.05964166915962,18.771666864582045,52.841242692406894,22.68046074372794,14.742099810778646,16.271903897555056,15.118860574925062,14.410925193136418,18.259820894401443,25.31471456679205,66.04473231760596,34.81937789003934,7.56798632720573,7.608473682229797,7.660740896602493,8.71479881598928,10.967935033231553,30.610069557128963,37.839033015730784,20.731892633930553,0,0,0,0,0,0,0,0,0,0,0,0,0,0,0,0,0,0,0,0,0,0,0,0,2.0,emg_gestures,54.0,repeats_short,2018-05-11 14:05:34.118,0.0,57.25180859114874,0.0
59.43312304189139,13.83673171077465,13.822449780428633,12.208923875142439,13.441161786215455,15.766761427161335,25.720069200072125,22.856114148826503,15.087207061773329,13.40120344990929,12.998333227366336,12.184051712572826,12.740686664326706,18.975430452375065,25.949859909004434,34.55103900438189,22.760616996151647,12.028742122537334,10.19723383952575,9.58786369546851,10.563535723424094,17.16866761972938,19.385303327203776,18.634196550313163,15.910231163102251,10.291328811298643,10.431664453327208,9.25103208605332,9.495293759514446,10.525628738957373,15.306351705662061,15.784219304682454,11.128278540435277,10.137519080781738,9.792237659102522,9.094473760036584,9.326887276296803,11.6045667154444,16.29804224089829,22.46283937781799,15.971741453176021,8.892300653259202,7.73362008221767,7.252424279224835,7.628657259816266,10.04393690986349,12.764629996413698,13.213004010389755,11.596581982260362,-2.3633769568768033,-2.573880083077947,0.8286049472366503,-6.922976114842249,1.872311162115909,2.829435459104946,-10.935122856918337,-7.073426346783322,6.792267641690696,8.377065548961944,13.81531104722478,13.816487230760044,10.242156102956947,11.475933898297374,16.55510201440699,14.225436570082202,-2.016510072117363,3.845450570404388,13.393267078471826,16.078130043384984,12.645703259763948,14.545476693483646,25.117735344417397,24.46175840627163,9,11,4,6,8,12,22,9,11,9,7,6,8,16,18,16,2,2,2,2,7,16,17,8,0,0,0,0,0,0,1,0,0,0,0,0,0,0,0,0,0,0,0,0,0,0,0,0,25728.322028246606,26079.16113331802,23127.580215133297,23738.234398786117,26314.071847393432,38265.879264155155,39460.548261706135,27820.69635108819,25343.797701954347,24480.594147756303,22736.184400091457,23317.21819074201,29011.416788611,40745.10560224573,56157.09844454497,39929.35363294005,22230.751633148004,19334.050205544176,18131.060698062087,19071.643149540665,25109.842274658724,31911.574991034246,33032.510025974385,28991.45495565091,191.45198506338824,191.0587604429451,149.05473819068598,180.6648075672567,248.59069803688908,661.5183937511141,522.3974631508017,227.617064696116,179.58913694345844,168.94988534988067,148.45036191523084,162.32334705769077,360.0641440937653,673.394240710933,1193.7647375396975,518.0295526717529,144.69036698117776,103.98059372623337,91.92245854501255,111.58328240251467,294.7581909806191,375.7880853062131,347.2270802423706,253.12040296468874,24,15,0,0,5,14,8,0,9,6,0,0,11,13,24,0,5,0,0,1,10,9,2,0,0.0,emg_gestures,54.0,repeats_short,2018-05-11 14:05:34.118,0.0,58.47153696074726,0.0
59.677068715811096,8.190010045750974,7.810428345172327,7.746606994520632,8.572338119057173,9.88462299931165,14.833121504837578,18.67983775793127,11.987516862264943,8.225182826839763,7.755068042157307,7.759042508994432,7.84923063648326,10.528386306674458,17.3111753125949,31.804300602667585,18.62913604681234,7.1856907116241,6.671915871758539,6.644515370304075,7.137919441222736,9.343204066578526,15.375383288990239,17.280769357177853,13.212248480709182,5.945184461945149,5.689850761504484,5.6452261288159775,6.099730184239987,6.828162902716933,9.544864951251295,13.077480493502382,8.545046000715779,5.793717474796794,5.564117646107188,5.612060699146237,5.64445579822707,7.310241540096992,11.637305806177084,20.462619832758413,12.30219104809385,5.2299285161497115,4.879090137742629,4.862862807389474,5.3344736049423735,6.636416021341973,10.705592051129965,11.983678203948841,9.178142870442047,-12.147113192697562,-12.541340470008251,-12.450516658363874,-11.976942815259452,-14.45465025859492,-0.5084945972844377,-43.10959756078121,-19.447256975334323,-12.882887730937888,-12.71810300251382,-10.049346493203096,-7.698061902599709,-9.731804342143182,-34.47696916910591,-56.10377154456118,-29.20367230804739,-9.374290598745574,-8.586987858778487,-5.271481866458688,0.038160688317034896,5.444787516688139,5.0660098099827415,-5.300946165614903,-7.667838229339331,1,1,1,2,2,6,16,6,1,1,2,2,2,10,15,9,0,0,0,0,2,11,12,6,0,0,0,0,0,0,1,0,0,0,0,0,0,0,0,0,0,0,0,0,0,0,0,0,14862.961154862873,14224.626903761211,14113.065322039944,15249.325460599968,17070.407256792332,23862.16237812824,32693.701233755954,21362.615001789447,14484.293686991985,13910.294115267969,14030.151747865593,14111.139495567675,18275.603850242478,29093.26451544271,51156.54958189603,30755.477620234626,13074.821290374279,12197.725344356571,12157.157018473685,13336.184012355934,16591.040053354933,26763.980127824914,29959.1955098721,22945.357176105117,67.07380473433594,61.00105009696638,60.005966319531204,73.47344559593166,97.66325938053909,219.96400706537125,348.8479467841415,143.67567482804643,67.6512225395778,60.13756441583594,60.19491583731844,61.596724577927986,110.78494573228699,299.6061678370998,1011.4882058933437,347.03341469051855,51.632265664554836,44.51282648947658,44.14755064502292,50.94443768615665,87.29447949059232,236.39807178688753,298.62454525272307,174.5634672508543,0,0,0,0,0,0,6,0,0,0,0,0,0,0,19,0,0,0,0,0,0,0,2,0,0.0,emg_gestures,54.0,repeats_short,2018-05-11 14:05:34.118,0.0,58.71548263466696,0.0
59.9210143897308,5.489955794560999,5.8083538671250325,5.240771701975733,5.385401349474682,5.711957967052347,6.453266089144986,10.842139746693846,6.735103081880963,5.443936930426694,5.0766450071998985,4.868728649797899,4.7747537748261415,5.8180954772844204,8.363605803332062,13.925963667979232,8.236414212767388,5.0426923108276736,4.272572979098963,4.049532353391926,4.305682797565486,4.930424674970694,7.8227453983434945,8.372443640732696,6.607098776661577,4.119986436001657,4.310952103983083,3.9989499866880323,4.137725563754952,4.433993655416251,5.1251911056195825,8.119028111141782,5.2337023137791405,4.137631187564309,3.798989076924666,3.7067236465141877,3.683518370917349,4.52474705426691,6.4391135440687215,10.040212104127498,6.064538631405143,3.801516642281295,3.3337845958956454,3.19224424597192,3.397851100324867,3.9040305056866127,6.085434503985275,6.552672366761989,5.135940082775112,-3.4152967513687535,-5.899122402049836,-7.7815910446771355,-4.722931899461185,-5.639113381630102,-6.638460352070953,7.484786425589505,1.0034600182634597,-7.176763128634798,-7.473090664026017,-8.536339352954275,-8.209730779758543,-9.377447004299206,-10.289894377022994,-21.017762716000075,-17.792983979247694,-11.476009400270577,-9.599828442485258,-10.810777402198632,-10.9528082463348,-13.548736588918247,-18.50535250616115,-26.781127225396403,-33.3357359758095,0,0,0,0,0,0,3,0,0,0,0,0,0,1,3,1,0,0,0,0,0,0,0,0,0,0,0,0,0,0,0,0,0,0,0,0,0,0,0,0,0,0,0,0,0,0,0,0,10299.966090004142,10777.380259957707,9997.374966720081,10344.31390938738,11084.984138540627,12812.977764048956,20297.570277854455,13084.255784447852,10344.077968910771,9497.472692311665,9266.809116285469,9208.795927293373,11311.867635667275,16097.783860171803,25100.530260318745,15161.346578512857,9503.791605703238,8334.461489739113,7980.610614929799,8494.627750812168,9760.076264216532,15213.586259963187,16381.680916904972,12839.85020693778,30.139599079404956,33.73689249069817,27.465681188553244,29.00249972647468,32.62644012261252,41.643762599588605,117.55024587850832,45.35831257132531,29.63438718273571,25.771980804774625,23.704376516603382,22.79807820499611,33.849960828608744,69.94936519405157,193.92380694410195,67.82636488094349,25.428330495642584,18.254738497226626,16.398492851763415,18.538450906648958,24.30877903113745,61.19528764357392,70.09777694319372,43.64889443518116,0,0,0,0,0,0,1,0,0,0,0,0,0,0,3,0,0,0,0,0,0,0,0,0,0.0,emg_gestures,54.0,repeats_short,2018-05-11 14:05:34.118,0.0,58.959428308586666,0.0
60.164960063650504,5.6349006396014305,5.806246354600737,5.191776890834563,5.291765292250493,5.500827967888147,5.72868447225726,9.972025125029067,5.727406127700273,5.732553161615222,5.191211138966851,4.797708675179056,4.707172451388109,5.384973015348947,7.0626100032865295,9.692645344953856,6.478928707287346,5.3487068298895295,4.3662192398774025,3.91998367345218,3.957064409930974,4.437900523691345,6.753232574527613,7.102481013365453,5.67276161416498,4.180973142678282,4.2427857206773645,3.9094062308442097,3.954660640245423,4.139709829524011,4.537586044110787,7.422810320726571,4.486659567231565,4.389940107053239,3.8845080982827915,3.600460911491145,3.593353206408072,4.158803744626624,5.357732218859026,7.4823974978108785,4.860310957019964,4.011507350993606,3.4189513744929836,3.1160842746257065,3.1247798437550243,3.5209281980726237,5.249687244832094,5.525402338939426,4.310204652973983,11.036419733381102,10.975554564176667,12.182770224266154,11.950812273163702,13.973416566578978,12.72186266732797,32.30839718136921,14.0222891167625,11.292426244870487,10.181346133414523,9.77958784129876,8.570888388059336,14.695957522743425,23.347025178469476,32.200524859228906,15.669998003093152,9.236363265256468,8.047733198442987,7.05928739534035,5.672502162257058,7.661846318921381,14.451682590211474,8.14519952079278,7.8309828911309545,0,0,0,0,0,0,4,0,0,0,0,0,0,0,0,0,0,0,0,0,0,0,0,0,0,0,0,0,0,0,0,0,0,0,0,0,0,0,0,0,0,0,0,0,0,0,0,0,10452.432856695707,10606.964301693411,9773.515577110524,9886.651600613557,10349.274573810028,11343.965110276968,18557.025801816428,11216.648918078914,10974.850267633097,9711.270245706979,9001.152278727863,8983.38301602018,10397.009361566561,13394.330547147565,18705.993744527197,12150.77739254991,10028.768377484015,8547.378436232459,7790.210686564266,7811.9496093875605,8802.320495181559,13124.218112080234,13813.505847348564,10775.511632434958,31.74975512252343,33.707802923994066,26.951068221620815,27.999177066216816,30.257609415035365,32.81761316874038,99.44109455032597,32.80192435966585,32.85952737785225,26.944938279321104,23.015670517445997,22.155726645014756,28.997742598495844,49.87935311901951,93.94404067570729,41.968858781449306,28.606225612956315,19.062413032616913,15.365772820586269,15.658237633914018,19.69491877010343,45.60366349650996,50.44522047248031,32.17735371164769,0,0,0,0,0,0,0,0,0,0,0,0,0,0,0,0,0,0,0,0,0,0,0,0,0.0,emg_gestures,54.0,repeats_short,2018-05-11 14:05:34.118,0.0,59.20337398250637,0.0
60.40890573757021,5.451281290586572,5.094259767619804,4.9711037829894265,5.059772440060859,5.25190247636665,4.9753122333979425,9.254827135188425,5.6366999260064805,5.161928008072129,5.020477139872567,4.583797235011325,4.458204420145769,5.245131109697035,6.744690933038419,9.109652352966343,6.360667438922193,4.595349789147789,3.938886531493764,3.709594007067835,3.613402643700175,4.085636343661413,5.859967307069804,6.544569107522962,5.140448104047436,3.9829640837703875,3.7505123987774365,3.721706272615306,3.689217956075104,3.781304820813523,3.8472291335319766,6.937959412433592,4.25489755001274,3.877823167040279,3.720015239753511,3.403146368902472,3.3490239911999846,3.966284096186659,5.0515078824916495,6.812421735444435,4.832415109840768,3.5216683425432276,3.153218941753744,2.994438996657672,2.8686016533218144,3.226750153819241,4.506137614178458,4.852669669033141,3.8517052180871336,-2.2434859312132565,-4.027586552585391,-3.706078775946129,-5.1263364274850165,-3.884475990820402,-0.5628895404104091,2.660349433063442,-1.355598092119239,-3.6215704378971982,-4.836247845018445,-2.129518988224495,-2.7592030614176135,-4.14333023229847,-1.695569279365782,-4.595476224183875,-2.4115404945107857,1.2156735968490544,0.7926060623409779,1.3947311725306717,-1.1922398137014794,-1.4782259167030887,-3.7840385150108524,-3.38629143495418,-1.3830066317162695,0,0,0,0,0,0,2,0,0,0,0,0,0,0,1,0,0,0,0,0,0,0,0,0,0,0,0,0,0,0,0,0,0,0,0,0,0,0,0,0,0,0,0,0,0,0,0,0,9957.410209425969,9376.280996943591,9304.265681538265,9223.04489018776,9453.262052033808,9618.072833829941,17344.89853108398,10637.24387503185,9694.557917600698,9300.038099383777,8507.86592225618,8372.559977999961,9915.710240466648,12628.769706229123,17031.054338611088,12081.03777460192,8804.170856358069,7883.04735438436,7486.09749164418,7171.504133304536,8066.875384548102,11265.344035446145,12131.67417258285,9629.263045217835,29.71613995298301,25.950894558798762,24.711780251483173,25.601167091975984,27.58226537781061,24.753655490107437,85.65160552363487,31.770761065437306,26.645198788715586,25.204947352209484,21.011109054400503,19.87538510533631,27.51123157098751,45.49052977252345,82.98050161414272,40.45622826802872,21.117222126138344,15.5147434631265,13.761087584210472,13.056591598705284,16.692415310624558,34.33848193742639,42.831350731778286,26.42395758224084,0,0,0,0,0,0,0,0,0,0,0,0,0,0,0,0,0,0,0,0,0,0,0,0,0.0,emg_gestures,54.0,repeats_short,2018-05-11 14:05:34.118,0.0,59.447319656426075,0.0
60.65285141148991,5.335369471359798,5.103926597555796,4.963919987006583,5.103183875643567,5.307356408632161,4.534521158297511,7.996737833348885,5.4004652116239775,4.89878921011148,4.832834451483521,4.55461597177851,4.423800778383747,5.2653647053448775,6.56891575205804,9.358931000257302,6.090210597113799,3.935138197385963,3.6513432849692133,3.6061501258303394,3.614628524850276,4.23316929382595,6.226182628340073,6.834332602180984,5.091503484463509,3.924962022398147,3.7503208913549386,3.6502914627479157,3.720994208022604,3.8786110965106433,3.453433331821916,6.144925795571162,4.065694417427923,3.6400331911950445,3.5600234220969984,3.3509483220409826,3.2651722448860574,3.9411889728583605,4.999430519808607,6.9829586736779525,4.590971889253745,3.015756372680991,2.85125873987976,2.8343919375790287,2.8194480714455206,3.2955942227517605,4.782558667678252,5.167227941075238,3.9636055985864695,-11.828950037633692,-10.405747289415622,-13.163058322476758,-13.867010787373083,-16.154504877251952,-9.729387962981775,-13.778195224026188,-14.052840907564352,-11.896087306645391,-10.708589538577154,-11.227470696636871,-9.128314163482418,-11.765862494193268,-14.000372589790373,-21.30036638260924,-14.019418882385487,-6.174268447824778,-6.925417191468375,-7.779569120800691,-6.396472069582859,-6.839132885314542,-13.89202253882332,-11.400444764330956,-5.739167628991626,0,0,0,0,0,0,0,0,0,0,0,0,0,0,1,0,0,0,0,0,0,0,0,0,0,0,0,0,0,0,0,0,0,0,0,0,0,0,0,0,0,0,0,0,0,0,0,0,9812.405055995368,9375.802228387347,9125.72865686979,9302.48552005651,9696.527741276608,8633.58332955479,15362.314488927905,10164.236043569808,9100.082977987611,8900.058555242496,8377.370805102457,8162.930612215144,9852.972432145902,12498.576299521517,17457.396684194882,11477.429723134363,7539.390931702477,7128.1468496994,7085.979843947572,7048.620178613802,8238.985556879401,11956.39666919563,12918.069852688093,9909.013996466174,28.464612849796225,26.047354707558682,24.638740653631036,26.040228515448543,28.16742759833703,20.56153398514491,63.94781467418405,29.164963048924278,23.99803617903446,23.353859336134256,20.743792654791275,19.56949843925538,27.723984554440715,43.14935242972555,87.58368231076147,37.09019952535658,15.485115797308971,13.332295923239391,13.004264830534032,13.065523954503002,17.91929482147579,38.76203901702833,46.70340902891587,25.92215123941793,0,0,0,0,0,0,0,0,0,0,0,0,0,0,0,0,0,0,0,0,0,0,0,0,0.0,emg_gestures,54.0,repeats_short,2018-05-11 14:05:34.118,0.0,59.69126533034578,0.0
60.89679708540962,5.225870859783286,4.918310110683757,4.743059049866532,4.974662067759467,5.1403577618703045,4.522034032219303,7.996361635061113,5.291401188969842,4.860545519180018,4.644751318551641,4.48197712313376,4.347207910071817,5.00201253131433,5.852445893717097,8.572500131389685,5.867287307278005,3.7013699248062903,3.594104893833216,3.61191831103798,3.5984840589779306,4.2086770014472075,6.360858066591143,6.9221845250612715,5.0863637872681355,3.8669703412579075,3.6063464529808873,3.4913760045530813,3.6399342664800844,3.8232861009536863,3.422985483560365,6.075043189659762,4.041294968900501,3.670262692817509,3.4381624393036225,3.3423274980506177,3.2391651903115912,3.7718806578859194,4.524973316443929,6.48757354277815,4.353128052538934,2.9142221651883564,2.8090350317365824,2.8463512572476306,2.8262380059910415,3.3327110803350557,4.973020423134588,5.411416610382132,3.998618131754818,-5.649112209108349,-2.3257491404608692,-2.7841447498123326,-3.053538307655864,-5.194878623169921,-5.328718707421255,-9.319573133081583,-5.475969809050297,-0.8320065592852819,-1.3854175257510173,-3.9736161423812044,-2.802366670956565,-5.2244213843287834,-8.929105286225154,-0.6666649383106664,-2.2949258174785827,-4.760395792401086,-4.533429665656078,-4.073148767395754,-2.571944878300571,0.11647848291456064,7.2379284955836605,2.080373581616218,-3.018099580473505,0,0,0,0,0,0,0,0,0,0,0,0,0,0,0,0,0,0,0,0,0,0,0,0,0,0,0,0,0,0,0,0,0,0,0,0,0,0,0,0,0,0,0,0,0,0,0,0,9667.425853144769,9015.866132452218,8728.440011382703,9099.835666200212,9558.215252384216,8557.463708900912,15187.607974149403,10103.237422251252,9175.656732043772,8595.406098259056,8355.818745126544,8097.912975778978,9429.701644714798,11312.433291109823,16218.933856945374,10882.820131347335,7285.555412970891,7022.587579341456,7115.878143119076,7065.595014977604,8331.77770083764,12432.55105783647,13528.54152595533,9996.545329387045,27.309599963362864,24.18977312305983,22.496601211020803,24.747261983472395,26.423277845919632,20.448771323780914,63.941795785027416,27.9989214051764,23.6246846917895,21.573440791907466,20.088042368757698,18.898202814230608,25.019986318515322,34.250847623128074,73.48396405937775,34.42435533875639,13.700097643373347,12.917367935553461,13.04574153739067,12.948937507231504,17.712009128772955,40.45952659436178,47.91503718070754,25.870817122298813,0,0,0,0,0,0,0,0,0,0,0,0,0,0,0,0,0,0,0,0,0,0,0,0,0.0,emg_gestures,54.0,repeats_short,2018-05-11 14:05:34.118,0.0,59.93521100426548,0.0
61.14074275932932,5.253522618735451,4.901783584511713,4.797006591949627,5.026708959069365,5.14786373066217,4.60915542412673,8.501739089829789,5.567863771694446,4.684656909895237,4.672306832855465,4.486328728932036,4.3295891870761185,4.956389242005662,5.915849656952479,8.138115794516981,5.730698800389183,3.6037119436155516,3.5513152157275973,3.6142086027480165,3.5261244929777336,4.119051538569189,6.042965965841315,5.994471702730102,4.442456791907472,3.745424187060562,3.4517464471224377,3.4213081692103717,3.5645202574365875,3.675580905649578,3.4839840168624856,6.424297785558673,4.194574704694591,3.4015773738631303,3.3029976893930804,3.230289522677163,3.1347219381425324,3.6818002390496205,4.479897814339611,6.129809373243125,4.257503007333046,2.834777869787284,2.7865287224500603,2.8450885235371883,2.755003812690455,3.2171811403288078,4.62294258240282,4.681604483060894,3.448368367974891,3.8954231358525226,2.238997457541682,4.190472183959912,5.636028663600895,5.836462346800902,2.432005919617274,2.8544111248232182,4.657651737796505,4.245953849192444,4.358030049757638,4.077124939802717,2.538650149279541,3.2249024587858255,5.060880406722741,10.015146868509715,4.802001229002175,-0.9162178398637777,-0.5041715803285021,-0.6456867261119612,-0.9010347289172498,-2.983449544614507,-11.210892502498991,-8.645147389658616,-0.6197411464030722,0,0,0,0,0,0,0,0,0,0,0,0,0,0,0,0,0,0,0,0,0,0,0,0,0,0,0,0,0,0,0,0,0,0,0,0,0,0,0,0,0,0,0,0,0,0,0,0,9363.560467651405,8629.366117806094,8553.27042302593,8911.300643591469,9188.952264123945,8709.960042156214,16060.744463896684,10486.436761736477,8503.943434657825,8257.494223482701,8075.723806692908,7836.8048453563315,9204.500597624052,11199.744535849028,15324.523433107814,10643.757518332615,7086.94467446821,6966.321806125151,7112.721308842971,6887.5095317261375,8042.952850822019,11557.356456007052,11704.011207652235,8620.920919937227,27.598762188582374,24.026964137793964,23.011250929178996,25.26778105497946,26.500398746609477,21.243721340349627,72.2781409867263,30.999927600713704,21.945815273138887,21.82962463307529,20.127070992473975,18.74531562151627,24.565685770193422,34.996573968818645,66.22744293456965,32.84070000256234,12.986621894914368,12.611685157920157,13.06243917814698,12.433400450176725,16.965815512705337,36.51594383298889,35.93160842833013,19.7336251634489,0,0,0,0,0,0,2,0,0,0,0,0,0,0,0,0,0,0,0,0,0,0,0,0,0.0,emg_gestures,54.0,repeats_short,2018-05-11 14:05:34.118,0.0,60.17915667818519,0.0
61.384688433249025,5.362369887117759,5.099771296074413,4.974518789950971,5.233024244123725,5.497146355354665,4.797138398358868,8.222452233772,5.611781241932873,4.651475907924795,4.805682101507509,4.570335074112682,4.411351006059803,5.113205807550851,6.0493091209896654,8.228569206162062,5.7464268413918544,3.3868618295289954,3.3410458377695984,3.44588023406084,3.4298230357597785,3.983388903538513,6.085646153173697,5.856546719212389,4.25287414873546,3.752974819969188,3.503289643190049,3.457819287928438,3.6165533598308284,3.8146865143896225,3.5961262126576594,6.189479025035923,4.175092594708573,3.317630580060661,3.3098285565472674,3.2235289737630928,3.1254304781257973,3.7169381273465216,4.463551981102773,6.132186210332808,4.239226495620624,2.689977459406704,2.6458121810454633,2.723820736168319,2.7019563166440386,3.0967241679379103,4.581179834728257,4.592042680478673,3.3526511037491655,9.685287837646271,7.78883080198374,6.562485615064704,10.258061945764945,11.645461948757577,11.102770909997275,23.11301720944679,12.373312222949334,4.824483575525988,5.415255792214155,8.15706245227157,7.3809723750026635,12.705005055941971,15.240411998218786,15.272456260481011,9.981551107673582,8.123116103700077,6.560940511532239,5.995943704147228,5.4372446438707165,1.7131016653178381,-7.651070798905376,0.35128369044023167,6.6733537309361,0,0,0,0,0,0,0,0,0,0,0,0,0,0,0,0,0,0,0,0,0,0,0,0,0,0,0,0,0,0,0,0,0,0,0,0,0,0,0,0,0,0,0,0,0,0,0,0,9382.43704992297,8758.224107975122,8644.548219821096,9041.383399577071,9536.716285974057,8990.315531644148,15473.697562589809,10437.731486771434,8294.076450151653,8274.571391368168,8058.822434407732,7813.576195314493,9292.345318366304,11158.879952756932,15330.46552583202,10598.06623905156,6724.943648516761,6614.530452613659,6809.551840420798,6754.890791610096,7741.810419844775,11452.949586820643,11480.106701196682,8381.627759372914,28.754986435220424,26.007265589195512,24.7457095643186,27.38437731442243,30.218318261888996,23.012336197477783,67.6087142720006,31.492086344485887,21.636226797221198,23.094575901520294,20.887919635101373,19.459946586237084,26.14447108771253,36.59406214058098,67.70896466754574,33.02137672722633,11.47067781135721,11.16252515155075,11.874090485060274,11.76368132545378,15.867222500435815,37.03508899308886,34.299113207280016,18.08693785110638,1,1,0,1,1,0,4,1,0,0,0,0,0,0,0,0,0,0,0,0,0,0,0,0,0.0,emg_gestures,54.0,repeats_short,2018-05-11 14:05:34.118,0.0,60.42310235210489,0.0
61.62863410716873,5.260767729722257,4.996281464179005,4.851214198729989,5.126643309016234,5.470218090683796,4.677769492949034,7.786900455005899,5.453661792439092,4.533479037531704,4.716566555973206,4.485321501552383,4.3279193144858485,4.871164191133178,5.42121699192137,7.942894772908572,6.0533687392894375,3.301446650201389,3.2188037248520964,3.2808604045373597,3.217225739709936,3.6430340144272115,5.603197390582489,5.812032615670557,4.417509574387122,3.641603896612821,3.4498076150182415,3.3860418497085405,3.5476341543705034,3.775511356700865,3.428430504693184,5.647816864861444,4.002462365949107,3.257372258856162,3.290828565166209,3.156138273948383,3.0711153217789535,3.4509746586299355,3.982376086018444,5.778780482934868,4.292965924119824,2.5629038668071655,2.5141453406846193,2.5563917082148646,2.4876140304171304,2.792912389490252,4.083115268586586,4.337864917796234,3.2911040699337346,0.923063742721038,0.6840820428612919,0.012232744370802351,-1.7189898250086975,-2.5569403266877604,1.9129776072270972,4.659902392742573,2.4901303348373025,-4.956121393973364,-4.7429124445090665,-0.16341439939137548,-1.2117215694201242,0.2548777642913924,0.5147072749903518,3.908634581649782,2.164410240810751,-0.11236572654508414,0.32211419660351526,1.3550099719582738,0.04879307791003962,0.4604310860881844,9.165805344542317,4.44224741331371,-0.46658867589693376,0,0,0,0,0,0,0,0,0,0,0,0,0,0,0,0,0,0,0,0,0,0,0,0,0,0,0,0,0,0,0,0,0,0,0,0,0,0,0,0,0,0,0,0,0,0,0,0,9104.009741532052,8624.519037545604,8465.104624271351,8869.085385926259,9438.778391752163,8571.07626173296,14119.542162153612,10006.155914872768,8143.430647140405,8227.071412915522,7890.3456848709575,7677.788304447384,8627.436646574839,9955.94021504611,14446.95120733717,10732.41481029956,6407.259667017914,6285.363351711548,6390.979270537161,6219.035076042826,6982.28097372563,10207.788171466465,10844.662294490587,8227.760174834337,27.675608642260183,24.962185652810234,23.534263103076924,26.282461907458213,29.923044973742638,21.88141469578003,60.63512073444084,29.74200835431638,20.55217482054478,22.245618653074736,20.118098671075916,18.730860436558707,23.72816582136826,29.389078244508735,63.087404064580205,36.64231722641822,10.899526126249931,10.360652286849689,10.76399365216309,10.350520296791467,13.270877582297922,31.39186000038504,33.777187006942405,19.513045504349154,3,2,0,1,3,0,4,1,0,0,0,0,0,0,0,0,0,0,0,0,0,0,0,0,0.0,emg_gestures,54.0,repeats_short,2018-05-11 14:05:34.118,0.0,60.667048026024595,0.0
